#EXPORTTYPE:                 ,DATA ALL                                                   
#FILE:                       ,DF_FILED_VAL_STA_N2_10K_240211_R1.ngb-ss3                  
#FORMAT:                     ,NETZSCH5                                                   
#FTYPE:                      ,ANSI                                                       
#IDENTITY:                   ,DF_FILED                                                   
#DECIMAL:                    ,POINT                                                      
#SEPARATOR:                  ,COMMA                                                      
#MTYPE:                      ,TG                                                         
#INSTRUMENT:                 ,NETZSCH STA 449F3                                          
#PROJECT:                    ,Oxidative Pyrolysis                                        
#DATE/TIME:                  ,2/11/2024 13:12:51 (UTC-5)                                 
#CORR. FILE:                 ,                                                           
#TEMPCAL:                    ,30-01-2024 15:52                                           
#SENSITIVITY:                ,30-01-2024 15:52                                           
#LABORATORY:                 ,UL FSRI                                                    
#OPERATOR:                   ,Grayson                                                    
#REMARK:                     ,Douglas fir, Filed, Closed pan, Pt, Kinetics validation run
#SAMPLE:                     ,DF_FILED                                                   
#SAMPLE MASS /mg:            ,3.99                                                       
#MATERIAL:                   ,Douglas Fir                                                
#REFERENCE:                  ,                                                           
#REFERENCE MASS /mg:         ,0                                                          
#TYPE OF CRUCIBLE:           ,PtRh20 85 µl, with lid                                     
#SAMPLE CRUCIBLE MASS /mg:   ,254.00                                                     
#REFERENCE CRUCIBLE MASS /mg:,254.04                                                     
#PURGE 1 MFC:                ,NITROGEN,250.0 ml/min                                      
#PURGE 2 MFC:                ,OXYGEN,252.5 ml/min                                        
#PROTECTIVE MFC:             ,NITROGEN,250.0 ml/min                                      
#DSC RANGE /µV:              ,5000                                                       
#TG RANGE /mg:               ,35000                                                      
#TAU-R:                      ,---                                                        
#CORR. CODE:                 ,000                                                        
#EXO:                        ,-1                                                         
#RANGE:                      ,25°C....700°C/0.0....40.0K/min                             
#SEGMENT:                    ,S1-9/9                                                     
#SEG. 1:                     ,25°C/00:20/25°C                                            
#SEG. 2:                     ,25°C/20.0(K/min)/250°C                                     
#SEG. 3:                     ,250°C/00:10/250°C                                          
#SEG. 4:                     ,250°C/10.0(K/min)/300°C                                    
#SEG. 5:                     ,300°C/00:10/300°C                                          
#SEG. 6:                     ,300°C/5.0(K/min)/375°C                                     
#SEG. 7:                     ,375°C/00:20/375°C                                          
#SEG. 8:                     ,375°C/40.0(K/min)/700°C                                    
#SEG. 9:                     ,700°C/00:10/700°C                                          

##Temp./°C,Time/min,Mass(subtr.)/%,DSC(subtr.)/(mW/mg),DTG(subtr.)/(%/min),Sensit./(uV/mW),Segment
 26.20700,  0.00000,100.00000, 9.925359e-03,     13.68850,1.02105,1
 26.19956,  0.10000,100.67232, 9.698986e-03,      6.34760,1.02105,1
 26.20900,  0.20000,100.99048, 8.801723e-03,      2.41290,1.02105,1
 26.21946,  0.30000,100.56791, 7.633302e-03,      1.33139,1.02106,1
 26.21100,  0.40000,100.33584, 8.427172e-03,      0.92371,1.02105,1
 26.20043,  0.50000,100.21025, 9.381147e-03,      0.63015,1.02105,1
 26.22000,  0.60000,100.18170, 9.176206e-03,      0.43356,1.02106,1
 26.20940,  0.70000,100.17781, 6.662178e-03,      0.28921,1.02105,1
 26.20200,  0.80000,100.22005, 2.059986e-03,      0.17818,1.02105,1
 26.18566,  0.90000,100.19851,-4.727653e-03, 8.908588e-02,1.02104,1
 26.22600,  1.00000,100.18421,-1.554332e-02, 2.214283e-02,1.02106,1
 26.17700,  1.10000,100.13674,-2.554161e-02,-2.977894e-02,1.02103,1
 26.16100,  1.20000,100.16792,-3.633176e-02,-6.854003e-02,1.02102,1
 26.16774,  1.30000,100.15013,-4.366595e-02,-9.871824e-02,1.02103,1
 26.18500,  1.40000,100.15163,-5.262403e-02,     -0.12202,1.02104,1
 26.16152,  1.50000,100.12760,-5.949824e-02,     -0.13958,1.02102,1
 26.14700,  1.60000,100.12682,-6.648371e-02,     -0.15302,1.02101,1
 26.14172,  1.70000,100.09697,-7.237700e-02,     -0.16347,1.02101,1
 26.14600,  1.80000,100.07719,-7.715857e-02,     -0.17240,1.02101,1
 26.13826,  1.90000,100.04068,-8.156093e-02,     -0.18010,1.02101,1
 26.13700,  2.00000,100.04411,-8.802112e-02,     -0.18960,1.02101,1
 26.13032,  2.10000,100.02794,-9.092161e-02,     -0.19833,1.02100,1
 26.13500,  2.20000,100.01128,-9.457597e-02,     -0.20273,1.02101,1
 26.13907,  2.30000, 99.97923,-9.686987e-02,     -0.20564,1.02101,1
 26.12400,  2.40000, 99.97820,-9.963313e-02,     -0.20887,1.02100,1
 26.12102,  2.50000, 99.94829,     -0.10044,     -0.21230,1.02100,1
 26.12000,  2.60000, 99.91203,     -0.10020,     -0.21533,1.02100,1
 26.12376,  2.70000, 99.89469,     -0.10166,     -0.21761,1.02100,1
 26.15300,  2.80000, 99.84612,-9.906963e-02,     -0.21892,1.02102,1
 26.12901,  2.90000, 99.82946,-9.929638e-02,     -0.21922,1.02100,1
 26.13300,  3.00000, 99.81303,-9.682343e-02,     -0.21871,1.02101,1
 26.11917,  3.10000, 99.78031,-9.621656e-02,     -0.21759,1.02100,1
 26.14600,  3.20000, 99.76341,-9.494993e-02,     -0.21593,1.02101,1
 26.12344,  3.30000, 99.72700,-9.452951e-02,     -0.21379,1.02100,1
 26.14000,  3.40000, 99.73033,-9.438842e-02,     -0.21133,1.02101,1
 26.13032,  3.50000, 99.71302,-9.261988e-02,     -0.20874,1.02100,1
 26.14800,  3.60000, 99.66441,-9.157883e-02,     -0.20612,1.02101,1
 26.15133,  3.70000, 99.66440,-9.044136e-02,     -0.20357,1.02102,1
 26.16800,  3.80000, 99.66441,-8.745772e-02,     -0.20113,1.02103,1
 26.15382,  3.90000, 99.62771,-8.776806e-02,     -0.19884,1.02102,1
 26.15400,  4.00000, 99.60652,-8.521111e-02,     -0.19668,1.02102,1
 26.13875,  4.10000, 99.58918,-8.525478e-02,     -0.19461,1.02101,1
 26.14600,  4.20000, 99.54887,-8.371328e-02,     -0.19260,1.02101,1
 26.18708,  4.30000, 99.55195,-8.170303e-02,     -0.19065,1.02104,1
 26.16200,  4.40000, 99.51579,-7.977971e-02,     -0.18870,1.02102,1
 26.18634,  4.50000, 99.51496,-7.795430e-02,     -0.18671,1.02104,1
 26.14900,  4.60000, 99.48271,-7.640932e-02,     -0.18471,1.02102,1
 26.16440,  4.70000, 99.48158,-7.592822e-02,     -0.18268,1.02102,1
 26.15600,  4.80000, 99.44962,-7.378715e-02,     -0.18051,1.02102,1
 26.19071,  4.90000, 99.44783,-7.316721e-02,     -0.17818,1.02104,1
 26.18300,  5.00000, 99.39198,-7.097689e-02,     -0.17578,1.02104,1
 26.17608,  5.10000, 99.39384,-6.944106e-02,     -0.17332,1.02103,1
 26.16100,  5.20000, 99.35890,-6.798138e-02,     -0.17080,1.02102,1
 26.17524,  5.30000, 99.35866,-6.550126e-02,     -0.16820,1.02103,1
 26.20700,  5.40000, 99.35063,-6.479597e-02,     -0.16548,1.02105,1
 26.16592,  5.50000, 99.35308,-6.492611e-02,     -0.16262,1.02103,1
 26.18600,  5.60000, 99.32581,-6.273675e-02,     -0.15976,1.02104,1
 26.17268,  5.70000, 99.31027,-6.257662e-02,     -0.15686,1.02103,1
 26.17600,  5.80000, 99.28446,-6.180074e-02,     -0.15373,1.02103,1
 26.17592,  5.90000, 99.26532,-6.020598e-02,     -0.15036,1.02103,1
 26.18600,  6.00000, 99.25163,-6.067675e-02,     -0.14682,1.02104,1
 26.17881,  6.10000, 99.23511,-6.139517e-02,     -0.14310,1.02103,1
 26.18600,  6.20000, 99.21855,-6.123857e-02,     -0.13919,1.02104,1
 26.18015,  6.30000, 99.23095,-5.973261e-02,     -0.13509,1.02103,1
 26.18300,  6.40000, 99.19373,-5.899139e-02,     -0.13083,1.02104,1
 26.18067,  6.50000, 99.19399,-5.845252e-02,     -0.12654,1.02103,1
 26.19100,  6.60000, 99.18546,-5.636930e-02,     -0.12226,1.02104,1
 26.17742,  6.70000, 99.12934,-5.599693e-02,     -0.11811,1.02103,1
 26.19000,  6.80000, 99.12782,-5.393479e-02,     -0.11420,1.02104,1
 26.19648,  6.90000, 99.14625,-5.537162e-02,     -0.11069,1.02104,1
 26.20100,  7.00000, 99.14436,-5.412172e-02,     -0.10765,1.02105,1
 26.21115,  7.10000, 99.11967,-5.313622e-02,     -0.10519,1.02105,1
 26.20700,  7.20000, 99.09499,-5.281063e-02,     -0.10337,1.02105,1
 26.19015,  7.30000, 99.09458,-5.093353e-02,     -0.10213,1.02104,1
 26.20400,  7.40000, 99.09499,-5.131256e-02,     -0.10141,1.02105,1
 26.19793,  7.50000, 99.12133,-5.171954e-02,     -0.10114,1.02104,1
 26.21800,  7.60000, 99.05363,-5.168668e-02,     -0.10114,1.02106,1
 26.20971,  7.70000, 99.05345,-4.974884e-02,     -0.10133,1.02105,1
 26.21000,  7.80000, 99.05363,-4.831605e-02,     -0.10170,1.02105,1
 26.23328,  7.90000, 99.06368,-4.814874e-02,     -0.10208,1.02106,1
 26.21300,  8.00000, 99.05338,-4.663053e-02,     -0.10233,1.02105,1
 26.21224,  8.10000, 99.02059,-4.528073e-02,     -0.10246,1.02105,1
 26.21200,  8.20000, 98.98772,-4.531967e-02,     -0.10250,1.02105,1
 26.21881,  8.30000, 98.98745,-4.439174e-02,     -0.10243,1.02106,1
 26.21900,  8.40000, 98.98772,-4.400860e-02,     -0.10230,1.02106,1
 26.21598,  8.50000, 98.97245,-4.430536e-02,     -0.10222,1.02105,1
 26.23500,  8.60000, 98.96291,-4.419546e-02,     -0.10220,1.02107,1
 26.24398,  8.70000, 98.96390,-4.336859e-02,     -0.10235,1.02107,1
 26.22200,  8.80000, 98.95464,-4.213583e-02,     -0.10281,1.02106,1
 26.23310,  8.90000, 98.95785,-4.214913e-02,     -0.10359,1.02106,1
 26.23800,  9.00000, 98.92155,-4.269724e-02,     -0.10459,1.02107,1
 26.23316,  9.10000, 98.94104,-4.093107e-02,     -0.10575,1.02106,1
 26.22300,  9.20000, 98.90501,-4.138673e-02,     -0.10701,1.02106,1
 26.24296,  9.30000, 98.90278,-4.176079e-02,     -0.10839,1.02107,1
 26.24700,  9.40000, 98.89674,-4.044982e-02,     -0.10971,1.02107,1
 26.24291,  9.50000, 98.86263,-3.912225e-02,     -0.11067,1.02107,1
 26.23300,  9.60000, 98.88020,-4.007561e-02,     -0.11120,1.02106,1
 26.23921,  9.70000, 98.87413,-3.987770e-02,     -0.11144,1.02107,1
 26.25600,  9.80000, 98.82256,-3.782789e-02,     -0.11131,1.02108,1
 26.24875,  9.90000, 98.82251,-3.670919e-02,     -0.11063,1.02107,1
 26.23900, 10.00000, 98.82256,-3.614286e-02,     -0.10942,1.02107,1
 26.24173, 10.10000, 98.81182,-3.700352e-02,     -0.10778,1.02107,1
 26.24600, 10.20000, 98.78120,-3.689178e-02,     -0.10584,1.02107,1
 26.25147, 10.30000, 98.77720,-3.519458e-02,     -0.10368,1.02108,1
 26.26400, 10.40000, 98.77293,-3.501875e-02,     -0.10133,1.02108,1
 26.24740, 10.50000, 98.73862,-3.543140e-02,-9.894857e-02,1.02107,1
 26.23700, 10.60000, 98.73985,-3.483202e-02,-9.671776e-02,1.02107,1
 26.26502, 10.70000, 98.75082,-3.274346e-02,-9.469183e-02,1.02108,1
 26.25500, 10.80000, 98.74812,-3.277174e-02,-9.275880e-02,1.02108,1
 26.27148, 10.90000, 98.74112,-3.328523e-02,-9.088709e-02,1.02109,1
 26.26000, 11.00000, 98.70677,-3.314618e-02,-8.916310e-02,1.02108,1
 26.26463, 11.10000, 98.71572,-3.327441e-02,-8.754148e-02,1.02108,1
 26.26300, 11.20000, 98.71504,-3.295885e-02,-8.588494e-02,1.02108,1
 26.26247, 11.30000, 98.67808,-3.190907e-02,-8.411834e-02,1.02108,1
 26.27400, 11.40000, 98.64912,-3.258412e-02,-8.225297e-02,1.02109,1
 26.25871, 11.50000, 98.68531,-3.225747e-02,-8.028909e-02,1.02108,1
 26.24900, 11.60000, 98.68221,-3.314639e-02,-7.818188e-02,1.02107,1
 26.26781, 11.70000, 98.66511,-3.291481e-02,-7.595540e-02,1.02109,1
 26.24800, 11.80000, 98.62431,-3.202281e-02,-7.378416e-02,1.02107,1
 26.26953, 11.90000, 98.65584,-3.137452e-02,-7.184265e-02,1.02109,1
 26.30600, 12.00000, 98.61604,-3.164722e-02,-7.020162e-02,1.02111,1
 26.26597, 12.10000, 98.62687,-2.977403e-02,-6.890747e-02,1.02108,1
 26.27500, 12.20000, 98.60777,-2.921335e-02,-6.811525e-02,1.02109,1
 26.27121, 12.30000, 98.60549,-2.763962e-02,-6.790397e-02,1.02109,1
 26.27200, 12.40000, 98.64085,-2.734077e-02,-6.822644e-02,1.02109,1
 26.28078, 12.50000, 98.63190,-2.748122e-02,-6.908950e-02,1.02109,1
 26.28000, 12.60000, 98.63258,-2.584253e-02,-7.048226e-02,1.02109,1
 26.28487, 12.70000, 98.57703,-2.541403e-02,-7.228382e-02,1.02110,1
 26.29400, 12.80000, 98.58296,-2.565507e-02,-7.426826e-02,1.02110,1
 26.29267, 12.90000, 98.59349,-2.576120e-02,-7.628854e-02,1.02110,1
 26.33500, 13.00000, 98.57469,-2.396915e-02,-7.830309e-02,1.02112,1
 26.31747, 13.10000, 98.55808,-2.425299e-02,-8.021782e-02,1.02111,1
 26.30700, 13.20000, 98.54160,-2.359501e-02,-8.188970e-02,1.02111,1
 26.30312, 13.30000, 98.58099,-2.250789e-02,-8.326975e-02,1.02111,1
 26.30500, 13.40000, 98.52506,-2.303326e-02,-8.441160e-02,1.02111,1
 26.30870, 13.50000, 98.51000,-2.275964e-02,-8.529503e-02,1.02111,1
 26.31100, 13.60000, 98.54185,-2.247140e-02,-8.579778e-02,1.02111,1
 26.32006, 13.70000, 98.51065,-2.251917e-02,-8.595650e-02,1.02112,1
 26.33100, 13.80000, 98.50877,-2.153485e-02,-8.590012e-02,1.02112,1
 26.32200, 13.90000, 98.50713,-2.243867e-02,-8.564460e-02,1.02112,1
 26.31400, 14.00000, 98.47569,-2.172232e-02,-8.519495e-02,1.02111,1
 26.32993, 14.10000, 98.47506,-2.136726e-02,-8.459664e-02,1.02112,1
 26.32500, 14.20000, 98.45088,-2.153493e-02,-8.391664e-02,1.02112,1
 26.32711, 14.30000, 98.45068,-2.150183e-02,-8.323051e-02,1.02112,1
 26.35000, 14.40000, 98.45088,-2.097285e-02,-8.257384e-02,1.02113,1
 26.32562, 14.50000, 98.44173,-2.017538e-02,-8.195008e-02,1.02112,1
 26.32700, 14.60000, 98.44261,-1.947506e-02,-8.140426e-02,1.02112,1
 26.35009, 14.70000, 98.41117,-2.057181e-02,-8.109309e-02,1.02113,1
 26.32700, 14.80000, 98.40952,-1.872603e-02,-8.108139e-02,1.02112,1
 26.32194, 14.90000, 98.40962,-2.035164e-02,-8.121935e-02,1.02112,1
 26.33500, 15.00000, 98.40952,-2.153480e-02,-8.154589e-02,1.02112,1
 26.35619, 15.10000, 98.41248,-2.169341e-02,-8.211750e-02,1.02114,1
 26.34900, 15.20000, 98.39323,-2.041110e-02,-8.281314e-02,1.02113,1
 26.35847, 15.30000, 98.39499,-2.135812e-02,-8.350199e-02,1.02114,1
 26.34000, 15.40000, 98.37694,-2.116023e-02,-8.404297e-02,1.02113,1
 26.34252, 15.50000, 98.36088,-2.050020e-02,-8.449344e-02,1.02113,1
 26.35700, 15.60000, 98.36040,-2.022375e-02,-8.478659e-02,1.02114,1
 26.35518, 15.70000, 98.35521,-1.891065e-02,-8.472098e-02,1.02114,1
 26.35700, 15.80000, 98.31078,-1.910022e-02,-8.430751e-02,1.02114,1
 26.35675, 15.90000, 98.32155,-2.009272e-02,-8.358405e-02,1.02114,1
 26.36500, 16.00000, 98.31078,-2.153443e-02,-8.257093e-02,1.02114,1
 26.36561, 16.10000, 98.31242,-1.905337e-02,-8.132524e-02,1.02114,1
 26.36000, 16.20000, 98.29424,-1.984920e-02,-7.993068e-02,1.02114,1
 26.36910, 16.30000, 98.30018,-1.898063e-02,-7.846231e-02,1.02114,1
 26.36600, 16.40000, 98.28596,-1.797660e-02,-7.694661e-02,1.02114,1
 26.35871, 16.50000, 98.26992,-1.987462e-02,-7.544032e-02,1.02114,1
 26.37200, 16.60000, 98.26942,-1.872555e-02,-7.398898e-02,1.02115,1
 26.37480, 16.70000, 98.25708,-1.922547e-02,-7.264360e-02,1.02115,1
 26.36800, 16.80000, 98.24461,-1.797658e-02,-7.147848e-02,1.02114,1
 26.39159, 16.90000, 98.28149,-1.584046e-02,-7.051295e-02,1.02116,1
 26.37200, 17.00000, 98.27769,-1.685302e-02,-6.973329e-02,1.02115,1
 26.39258, 17.10000, 98.21022,-1.825932e-02,-6.907479e-02,1.02116,1
 26.39000, 17.20000, 98.24461,-1.816360e-02,-6.847128e-02,1.02116,1
 26.39396, 17.30000, 98.21282,-1.794355e-02,-6.791360e-02,1.02116,1
 26.37700, 17.40000, 98.22832,-1.685297e-02,-6.740385e-02,1.02115,1
 26.39765, 17.50000, 98.21190,-1.952152e-02,-6.694177e-02,1.02116,1
 26.40500, 17.60000, 98.19524,-1.853794e-02,-6.644651e-02,1.02117,1
 26.39312, 17.70000, 98.19519,-1.945343e-02,-6.583788e-02,1.02116,1
 26.42900, 17.80000, 98.19524,-1.816319e-02,-6.514523e-02,1.02118,1
 26.38980, 17.90000, 98.17704,-1.875289e-02,-6.435111e-02,1.02116,1
 26.41500, 18.00000, 98.17870,-1.891233e-02,-6.341215e-02,1.02117,1
 26.39819, 18.10000, 98.17781,-1.757836e-02,-6.233663e-02,1.02116,1
 26.41900, 18.20000, 98.14561,-1.947403e-02,-6.110663e-02,1.02117,1
 26.42548, 18.30000, 98.14543,-1.822566e-02,-5.972742e-02,1.02118,1
 26.40000, 18.40000, 98.14561,-1.966150e-02,-5.826678e-02,1.02116,1
 26.39974, 18.50000, 98.13757,-1.928774e-02,-5.684762e-02,1.02116,1
 26.41500, 18.60000, 98.13734,-1.835059e-02,-5.446955e-02,1.02117,1
 26.40640, 18.70000, 98.13734,-2.018878e-02,-5.300207e-02,1.02117,1
 26.41700, 18.80000, 98.13734,-1.909956e-02,-5.050205e-02,1.02117,1
 26.40864, 18.90000, 98.14067,-1.937165e-02,-4.877854e-02,1.02117,1
 26.42300, 19.00000, 98.10426,-1.909949e-02,-4.635016e-02,1.02118,1
 26.40535, 19.10000, 98.10432,-1.914533e-02,-4.229251e-02,1.02117,1
 26.42000, 19.20000, 98.10426,-1.760154e-02,-3.784665e-02,1.02117,1
 26.40338, 19.30000, 98.10430,-1.756896e-02,-3.727344e-02,1.02116,1
 26.43000, 19.40000, 98.10426,-1.629071e-02,-3.836300e-02,1.02118,1
 26.42586, 19.50000, 98.08711,-1.568399e-02,-2.641183e-02,1.02118,1
 26.43600, 19.60000, 98.08772,-1.703964e-02,-2.033514e-02,1.02118,1
 26.44423, 19.70000, 98.08772,-1.643468e-02,-1.870347e-02,1.02119,1
 26.43400, 19.80000, 98.08772,-1.666517e-02,-2.322005e-03,1.02118,1
 26.44633, 19.90000, 98.08944,-1.756685e-02,-1.588109e-06,1.02119,1
 26.43008, 20.00000, 98.08130,-1.817494e-02,-8.954649e-11,1.02118,2
 26.42957, 20.10000, 98.07118,-1.679570e-02,-7.536382e-03,1.02118,2
 26.45121, 20.20000, 98.07177,-1.872237e-02,-5.511685e-02,1.02119,2
 26.46754, 20.30000, 98.06625,-2.026426e-02,     -0.11687,1.02120,2
 26.53510, 20.40000, 98.05445,-2.468420e-02,-5.734365e-02,1.02124,2
 26.67034, 20.50000, 98.04235,-3.237933e-02, 9.880420e-02,1.02132,2
 26.91791, 20.60000, 98.04657,-4.499903e-02, 5.100710e-02,1.02147,2
 27.25334, 20.70000, 98.07663,-6.137407e-02,     -0.11451,1.02166,2
 27.72545, 20.80000, 98.02994,-8.497336e-02,-9.190282e-02,1.02194,2
 28.30559, 20.90000, 98.02179,     -0.10953, 2.132648e-02,1.02227,2
 29.05865, 21.00000, 98.04424,     -0.13530,-4.488463e-02,1.02270,2
 29.91927, 21.10000, 98.00992,     -0.16573,-6.670310e-02,1.02319,2
 30.90596, 21.20000, 98.04669,     -0.19014, 4.328173e-02,1.02375,2
 32.02319, 21.30000, 98.04456,     -0.22148, 1.836758e-02,1.02438,2
 33.24793, 21.40000, 98.02645,     -0.24643,-3.283536e-02,1.02505,2
 34.54237, 21.50000, 98.02639,     -0.27470,-9.409574e-03,1.02576,2
 35.94295, 21.60000, 98.04907,     -0.30191,-3.375023e-02,1.02651,2
 37.41032, 21.70000, 98.00766,     -0.32457,     -0.17156,1.02729,2
 38.95393, 21.80000, 98.01297,     -0.35086,     -0.18634,1.02809,2
 40.54303, 21.90000, 97.99599,     -0.37205,     -0.21289,1.02891,2
 42.19070, 22.00000, 97.95992,     -0.39528,     -0.16469,1.02974,2
 43.86766, 22.10000, 97.94879,     -0.41714,     -0.10340,1.03057,2
 45.58225, 22.20000, 97.95871,     -0.43833,     -0.12914,1.03140,2
 47.33372, 22.30000, 97.91880,     -0.45620,     -0.27103,1.03223,2
 49.10278, 22.40000, 97.86494,     -0.47720,     -0.24965,1.03305,2
 50.88276, 22.50000, 97.87504,     -0.49792,     -0.26441,1.03387,2
 52.69218, 22.60000, 97.82170,     -0.51909,     -0.35206,1.03467,2
 54.52196, 22.70000, 97.81139,     -0.54147,     -0.34661,1.03547,2
 56.36113, 22.80000, 97.75988,     -0.56101,     -0.36206,1.03625,2
 58.20607, 22.90000, 97.73391,     -0.58200,     -0.32838,1.03702,2
 60.05417, 23.00000, 97.69970,     -0.60671,     -0.35885,1.03777,2
 61.92398, 23.10000, 97.65836,     -0.62803,     -0.39894,1.03851,2
 63.79481, 23.20000, 97.63370,     -0.65407,     -0.57811,1.03923,2
 65.70082, 23.30000, 97.53472,     -0.67494,     -0.54711,1.03995,2
 67.59191, 23.40000, 97.50175,     -0.69743,     -0.44730,1.04064,2
 69.49368, 23.50000, 97.46919,     -0.71936,     -0.48146,1.04131,2
 71.40355, 23.60000, 97.43691,     -0.74146,     -0.63236,1.04197,2
 73.32258, 23.70000, 97.33662,     -0.76052,     -0.75118,1.04261,2
 75.23472, 23.80000, 97.25708,     -0.77555,     -0.70957,1.04323,2
 77.17055, 23.90000, 97.17199,     -0.79660,     -0.71142,1.04383,2
 79.09375, 24.00000, 97.10594,     -0.80765,     -0.71405,1.04441,2
 81.03887, 24.10000, 97.03960,     -0.81847,     -0.78614,1.04498,2
 83.01150, 24.20000, 96.94568,     -0.82433,     -0.84967,1.04554,2
 84.99334, 24.30000, 96.87445,     -0.83108,     -0.73410,1.04608,2
 86.94803, 24.40000, 96.79331,     -0.83240,     -0.71224,1.04659,2
 88.94909, 24.50000, 96.74431,     -0.83242,     -0.72520,1.04709,2
 90.95078, 24.60000, 96.67610,     -0.82866,     -0.73657,1.04757,2
 92.95587, 24.70000, 96.61035,     -0.82253,     -0.74919,1.04803,2
 94.98462, 24.80000, 96.51148,     -0.81093,     -0.79521,1.04847,2
 97.01640, 24.90000, 96.44511,     -0.80179,     -0.67332,1.04889,2
 99.05247, 25.00000, 96.37920,     -0.78787,     -0.47046,1.04929,2
101.09849, 25.10000, 96.34612,     -0.77134,     -0.44352,1.04967,2
103.16004, 25.20000, 96.27907,     -0.75463,     -0.44636,1.05004,2
105.22756, 25.30000, 96.24711,     -0.73799,     -0.42388,1.05038,2
107.28195, 25.40000, 96.21411,     -0.71701,     -0.44563,1.05070,2
109.37812, 25.50000, 96.18128,     -0.69842,     -0.49413,1.05100,2
111.42541, 25.60000, 96.11504,     -0.68033,     -0.48329,1.05127,2
113.52064, 25.70000, 96.04912,     -0.66077,     -0.30600,1.05153,2
115.56075, 25.80000, 96.04912,     -0.64211,-7.206188e-02,1.05175,2
117.65418, 25.90000, 96.04912,     -0.62543,-7.869685e-02,1.05197,2
119.73265, 26.00000, 96.04129,     -0.61177,     -0.20457,1.05216,2
121.81938, 26.10000, 96.00777,     -0.59659,     -0.24867,1.05232,2
123.93731, 26.20000, 95.97469,     -0.58350,     -0.25279,1.05247,2
125.99816, 26.30000, 95.94582,     -0.57434,     -0.21200,1.05259,2
128.09896, 26.40000, 95.94160,     -0.56384,-7.597109e-02,1.05270,2
130.18698, 26.50000, 95.94988,     -0.55760,-4.503037e-02,1.05278,2
132.28198, 26.60000, 95.92495,     -0.55267,     -0.22737,1.05284,2
134.40088, 26.70000, 95.88390,     -0.54918,     -0.18273,1.05287,2
136.50338, 26.80000, 95.88397,     -0.54700, 6.418068e-02,1.05289,2
138.59240, 26.90000, 95.91704,     -0.54146,-2.383150e-02,1.05288,2
140.72298, 27.00000, 95.89227,     -0.54450,     -0.15850,1.05286,2
142.82552, 27.10000, 95.88387,     -0.54639,-9.078003e-02,1.05281,2
144.94278, 27.20000, 95.88371,     -0.54644, 3.131963e-02,1.05274,2
147.07190, 27.30000, 95.88371,     -0.54695,-4.600358e-02,1.05264,2
149.18565, 27.40000, 95.85911,     -0.54947,-8.052711e-02,1.05253,2
151.34232, 27.50000, 95.85915,     -0.55180,     -0.18242,1.05239,2
153.47495, 27.60000, 95.82636,     -0.55884,     -0.18540,1.05224,2
155.58394, 27.70000, 95.82607,     -0.56216, 4.179959e-02,1.05206,2
157.70905, 27.80000, 95.82448,     -0.56562,     -0.10109,1.05186,2
159.84785, 27.90000, 95.80583,     -0.56963,     -0.21277,1.05164,2
161.98720, 28.00000, 95.79298,     -0.57227,     -0.14014,1.05139,2
164.12104, 28.10000, 95.79290,     -0.57531,     -0.16803,1.05113,2
166.25379, 28.20000, 95.75990,     -0.58216,     -0.10150,1.05085,2
168.40136, 28.30000, 95.75990,     -0.58602,-8.114193e-02,1.05054,2
170.53895, 28.40000, 95.75838,     -0.59307,     -0.17223,1.05021,2
172.68524, 28.50000, 95.72707,     -0.59825,     -0.15545,1.04986,2
174.81427, 28.60000, 95.69347,     -0.60328,     -0.11179,1.04950,2
176.96383, 28.70000, 95.72707,     -0.60751,     -0.14797,1.04911,2
179.09934, 28.80000, 95.69476,     -0.61445,     -0.32772,1.04870,2
181.25401, 28.90000, 95.63634,     -0.62078,     -0.24552,1.04827,2
183.39221, 29.00000, 95.62801,     -0.62676,     -0.17846,1.04782,2
185.54707, 29.10000, 95.60327,     -0.63445,     -0.26903,1.04734,2
187.71188, 29.20000, 95.56929,     -0.64000,     -0.29142,1.04685,2
189.86129, 29.30000, 95.53704,     -0.64618,     -0.28162,1.04634,2
192.01890, 29.40000, 95.51713,     -0.65679,     -0.27984,1.04580,2
194.18492, 29.50000, 95.49599,     -0.66231,     -0.35603,1.04525,2
196.34171, 29.60000, 95.43404,     -0.67091,     -0.46877,1.04468,2
198.49185, 29.70000, 95.39674,     -0.67550,     -0.36858,1.04409,2
200.64787, 29.80000, 95.36316,     -0.68772,     -0.42919,1.04348,2
202.81389, 29.90000, 95.33190,     -0.69171,     -0.57270,1.04284,2
204.97789, 30.00000, 95.26242,     -0.69927,     -0.65903,1.04219,2
207.13495, 30.10000, 95.17600,     -0.70601,     -0.58820,1.04152,2
209.29175, 30.20000, 95.12996,     -0.71277,     -0.51521,1.04084,2
211.45172, 30.30000, 95.08045,     -0.71879,     -0.55576,1.04013,2
213.60569, 30.40000, 95.01377,     -0.72216,     -0.58952,1.03941,2
215.77048, 30.50000, 94.98137,     -0.72799,     -0.66100,1.03866,2
217.92783, 30.60000, 94.89750,     -0.73680,     -0.68675,1.03790,2
220.09526, 30.70000, 94.82998,     -0.74276,     -0.72497,1.03711,2
222.25911, 30.80000, 94.76144,     -0.74871,     -0.89492,1.03631,2
224.43431, 30.90000, 94.65790,     -0.75512,     -0.90352,1.03549,2
226.58345, 31.00000, 94.55200,     -0.75867,     -0.72310,1.03466,2
228.74377, 31.10000, 94.51753,     -0.76458,     -0.68223,1.03381,2
230.90918, 31.20000, 94.43310,     -0.76824,     -1.13145,1.03294,2
233.06537, 31.30000, 94.34816,     -0.77105,     -1.31587,1.03205,3
235.22612, 31.40000, 94.21569,     -0.77578,     -1.03890,1.03115,3
237.35299, 31.50000, 94.13399,     -0.77313,     -1.03529,1.03024,3
239.41263, 31.60000, 94.04655,     -0.76423,     -1.05445,1.02935,3
241.38528, 31.70000, 93.92142,     -0.74114,     -1.06250,1.02848,3
243.22273, 31.80000, 93.85663,     -0.71291,     -1.07684,1.02765,3
244.92765, 31.90000, 93.72645,     -0.67439,     -1.07853,1.02688,3
246.48468, 32.00000, 93.57626,     -0.62497,     -1.07375,1.02616,3
247.86349, 32.10000, 93.49180,     -0.57514,     -1.06671,1.02552,3
249.11167, 32.20000, 93.37630,     -0.52055,     -1.05394,1.02494,3
250.18683, 32.30000, 93.27476,     -0.46481,     -1.03651,1.02443,3
251.09374, 32.40000, 93.15814,     -0.41234,     -1.01675,1.02399,3
251.87122, 32.50000, 93.04601,     -0.35882,     -0.99583,1.02362,3
252.49981, 32.60000, 92.98894,     -0.30495,     -0.97418,1.02332,3
253.02159, 32.70000, 92.88062,     -0.25976,     -0.95168,1.02307,3
253.40021, 32.80000, 92.80592,     -0.21391,     -0.92715,1.02288,3
253.69979, 32.90000, 92.68269,     -0.17490,     -0.89887,1.02274,3
253.90036, 33.00000, 92.59346,     -0.13818,     -0.86712,1.02264,3
254.03867, 33.10000, 92.50253,     -0.10659,     -0.83271,1.02257,3
254.09971, 33.20000, 92.43963,-7.754350e-02,     -0.79623,1.02254,3
254.10950, 33.30000, 92.36247,-5.477911e-02,     -0.75901,1.02254,3
254.08740, 33.40000, 92.28721,-3.179815e-02,     -0.72162,1.02255,3
254.00903, 33.50000, 92.21021,-1.722837e-02,     -0.68391,1.02258,3
253.91789, 33.60000, 92.13004,-7.289173e-03,     -0.64638,1.02263,3
253.80178, 33.70000, 92.05617, 3.642283e-03,     -0.60968,1.02269,3
253.68452, 33.80000, 92.01020, 1.147854e-02,     -0.57496,1.02274,3
253.54875, 33.90000, 91.98870, 1.655285e-02,     -0.54308,1.02281,3
253.42707, 34.00000, 91.91145, 1.899819e-02,     -0.51552,1.02287,3
253.31239, 34.10000, 91.88176, 2.243803e-02,     -0.49209,1.02292,3
253.18471, 34.20000, 91.80747, 2.278314e-02,     -0.47244,1.02299,3
253.07223, 34.30000, 91.76801, 2.152027e-02,     -0.45638,1.02304,3
252.98490, 34.40000, 91.72304, 2.041534e-02,     -0.44395,1.02308,3
252.88389, 34.50000, 91.71301, 1.758220e-02,     -0.43520,1.02313,3
252.80649, 34.60000, 91.64812, 1.464540e-02,     -0.42916,1.02317,3
252.74487, 34.70000, 91.59273, 1.192923e-02,     -0.42427,1.02320,3
252.67661, 34.80000, 91.56094, 9.460229e-03,     -0.41860,1.02323,3
252.64494, 34.90000, 91.52490, 6.708816e-03,     -0.41129,1.02325,3
252.59844, 35.00000, 91.45563, 1.330533e-03,     -0.40179,1.02327,3
252.57264, 35.10000, 91.41196,-5.299695e-04,     -0.39206,1.02328,3
252.55865, 35.20000, 91.38027,-1.131410e-03,     -0.38350,1.02329,3
252.54843, 35.30000, 91.37231,-2.797525e-03,     -0.37794,1.02329,3
252.53916, 35.40000, 91.33914,-4.981106e-03,     -0.37546,1.02330,3
252.55063, 35.50000, 91.30476,-7.725250e-03,     -0.37468,1.02329,3
252.54526, 35.60000, 91.24017,-7.694706e-03,     -0.37282,1.02330,3
252.55700, 35.70000, 91.20658,-7.619629e-03,     -0.36791,1.02329,3
252.56818, 35.80000, 91.17495,-1.070100e-02,     -0.35903,1.02329,3
252.57323, 35.90000, 91.14308,-9.554472e-03,     -0.34603,1.02328,3
252.57997, 36.00000, 91.11103,-8.990978e-03,     -0.33138,1.02328,3
252.61362, 36.10000, 91.04660,-1.058568e-02,     -0.31785,1.02326,3
252.62413, 36.20000, 91.04045,-9.406043e-03,     -0.30795,1.02326,3
252.61675, 36.30000, 91.03859,-8.888948e-03,     -0.30281,1.02326,3
252.62324, 36.40000, 91.00032,-8.604445e-03,     -0.30170,1.02326,3
252.64196, 36.50000, 90.95869,-6.009363e-03,     -0.30286,1.02325,3
252.63533, 36.60000, 90.94562,-5.912126e-03,     -0.30371,1.02325,3
252.63872, 36.70000, 90.88514,-4.449838e-03,     -0.30206,1.02325,3
252.65362, 36.80000, 90.84340,-4.805128e-03,     -0.29696,1.02324,3
252.64497, 36.90000, 90.82908,-5.224072e-03,     -0.29006,1.02325,3
252.64610, 37.00000, 90.77433,-3.879786e-03,     -0.28300,1.02325,3
252.64032, 37.10000, 90.79538,-3.876068e-03,     -0.27764,1.02325,3
252.64602, 37.20000, 90.75225,-2.502333e-03,     -0.27493,1.02325,3
252.63592, 37.30000, 90.74504,-2.592627e-03,     -0.27388,1.02325,3
252.63477, 37.40000, 90.71003,-2.723192e-03,     -0.27307,1.02325,3
252.61663, 37.50000, 90.65785,-2.619269e-03,     -0.27112,1.02326,3
252.61492, 37.60000, 90.61230,-1.697943e-03,     -0.26783,1.02326,3
252.59340, 37.70000, 90.61204,-8.041051e-04,     -0.26331,1.02327,3
252.58997, 37.80000, 90.60418,-1.019743e-03,     -0.25899,1.02327,3
252.57832, 37.90000, 90.57746, 7.227684e-04,     -0.25566,1.02328,3
252.57793, 38.00000, 90.53807,-1.070087e-03,     -0.25331,1.02328,3
252.55615, 38.10000, 90.50457, 9.388279e-04,     -0.25219,1.02329,3
252.55221, 38.20000, 90.47296,-1.132077e-03,     -0.25177,1.02329,3
252.53710, 38.30000, 90.46987,-5.928944e-04,     -0.25195,1.02330,3
252.52013, 38.40000, 90.44238, 3.055545e-04,     -0.25223,1.02331,3
252.51853, 38.50000, 90.41120,-1.717755e-05,     -0.25226,1.02331,3
252.50081, 38.60000, 90.38642,-5.868817e-04,     -0.25211,1.02332,3
252.51437, 38.70000, 90.35073, 1.114184e-04,     -0.25094,1.02331,3
252.48952, 38.80000, 90.32973,-1.472424e-03,     -0.24830,1.02332,3
252.49308, 38.90000, 90.28452, 1.051393e-03,     -0.24476,1.02332,3
252.47200, 39.00000, 90.27848, 6.503705e-05,     -0.24156,1.02333,3
252.46084, 39.10000, 90.26541, 3.043079e-04,     -0.23895,1.02334,3
252.44667, 39.20000, 90.23209, 1.099178e-03,     -0.23809,1.02334,3
252.47170, 39.30000, 90.20689, 1.182772e-03,     -0.23960,1.02333,3
252.43734, 39.40000, 90.19621, 2.270592e-04,     -0.24289,1.02335,3
252.44337, 39.50000, 90.16471, 8.270288e-05,     -0.24645,1.02335,3
252.42303, 39.60000, 90.13042, 1.044204e-03,     -0.24867,1.02336,3
252.42011, 39.70000, 90.13300, 1.426972e-03,     -0.24722,1.02336,3
252.41640, 39.80000, 90.09775, 1.892458e-03,     -0.24168,1.02336,3
252.40534, 39.90000, 90.05449, 2.576233e-03,     -0.23248,1.02336,3
252.40715, 40.00000, 90.01928, 1.575977e-03,     -0.22104,1.02336,3
252.40091, 40.10000, 90.01530, 1.575328e-03,     -0.20889,1.02337,3
252.39529, 40.20000, 90.01513, 1.114553e-03,     -0.19889,1.02337,3
252.38412, 40.30000, 89.98086, 1.163081e-03,     -0.19158,1.02337,3
252.39941, 40.40000, 89.95224, 7.243346e-04,     -0.18663,1.02337,3
252.38942, 40.50000, 89.93301, 1.440573e-03,     -0.18412,1.02337,3
252.37429, 40.60000, 89.89498, 2.163444e-03,     -0.17947,1.02338,3
252.37997, 40.70000, 89.93237, 1.604367e-03,     -0.18672,1.02338,3
252.38248, 40.80000, 89.89908, 1.632764e-03,     -0.18526,1.02337,3
252.37788, 40.90000, 89.86862, 2.844151e-03,     -0.17769,1.02338,3
252.36468, 41.00000, 89.84144, 2.709067e-03,     -0.21478,1.02338,3
252.37197, 41.10000, 89.87000, 4.831058e-03,     -0.14200,1.02338,3
252.36097, 41.20000, 89.79949, 3.383990e-03,     -0.25989,1.02339,3
252.35983, 41.30000, 89.80050, 3.311051e-03,-9.376569e-02,1.02339,4
252.38201, 41.40000, 89.76770, 4.656494e-03,     -0.16045,1.02338,4
252.38137, 41.50000, 89.76741,-1.505854e-03,     -0.21806,1.02338,4
252.42570, 41.60000, 89.73433,-7.353948e-03,     -0.24372,1.02335,4
252.51828, 41.70000, 89.70124,-1.871337e-02,     -0.25188,1.02331,4
252.66813, 41.80000, 89.70129,-3.310228e-02,     -0.24732,1.02324,4
252.87874, 41.90000, 89.64386,-5.124707e-02,     -0.21776,1.02313,4
253.17510, 42.00000, 89.61376,-7.412209e-02,     -0.17337,1.02299,4
253.56148, 42.10000, 89.64357,-9.710713e-02,     -0.15403,1.02280,4
253.99810, 42.20000, 89.61396,     -0.12241,     -0.18066,1.02259,4
254.52994, 42.30000, 89.61058,     -0.14757,     -0.22048,1.02233,4
255.13029, 42.40000, 89.54287,     -0.17362,     -0.22682,1.02203,4
255.80157, 42.50000, 89.53142,     -0.19568,     -0.19847,1.02170,4
256.54091, 42.60000, 89.51140,     -0.21846,     -0.17909,1.02134,4
257.35821, 42.70000, 89.51178,     -0.24138,     -0.20998,1.02093,4
258.23521, 42.80000, 89.51137,     -0.26170,     -0.28173,1.02049,4
259.12377, 42.90000, 89.44554,     -0.27985,     -0.33491,1.02004,4
260.09129, 43.00000, 89.41228,     -0.29702,     -0.33267,1.01955,4
261.08094, 43.10000, 89.37945,     -0.31119,     -0.30089,1.01905,4
262.11770, 43.20000, 89.34543,     -0.32452,     -0.29729,1.01851,4
263.17171, 43.30000, 89.34637,     -0.33513,     -0.34359,1.01797,4
264.27463, 43.40000, 89.31166,     -0.34587,     -0.41279,1.01739,4
265.36252, 43.50000, 89.24577,     -0.35330,     -0.47142,1.01682,4
266.45089, 43.60000, 89.21434,     -0.35835,     -0.51444,1.01625,4
267.57522, 43.70000, 89.14700,     -0.36478,     -0.54908,1.01565,4
268.69984, 43.80000, 89.08271,     -0.36822,     -0.57545,1.01505,4
269.82616, 43.90000, 89.01379,     -0.37155,     -0.60332,1.01444,4
270.95284, 44.00000, 88.97955,     -0.37336,     -0.63613,1.01383,4
272.07226, 44.10000, 88.88132,     -0.37609,     -0.66498,1.01322,4
273.20540, 44.20000, 88.81281,     -0.37932,     -0.69978,1.01260,4
274.31190, 44.30000, 88.81359,     -0.38235,     -0.76244,1.01199,4
275.42730, 44.40000, 88.66871,     -0.38134,     -0.82507,1.01137,4
276.53522, 44.50000, 88.59785,     -0.38098,     -0.85866,1.01075,4
277.60018, 44.60000, 88.51987,     -0.38415,     -0.88261,1.01015,4
278.68899, 44.70000, 88.42680,     -0.38312,     -0.92689,1.00954,4
279.76098, 44.80000, 88.31774,     -0.38367,     -0.99532,1.00893,4
280.83968, 44.90000, 88.23911,     -0.38420,     -1.08435,1.00831,4
281.90333, 45.00000, 88.12387,     -0.38400,     -1.18123,1.00770,4
282.96693, 45.10000, 87.98073,     -0.38605,     -1.25739,1.00708,4
284.04630, 45.20000, 87.86019,     -0.38549,     -1.29950,1.00645,4
285.08391, 45.30000, 87.71640,     -0.38561,     -1.32716,1.00585,4
286.13001, 45.40000, 87.60099,     -0.38889,     -1.36782,1.00523,4
287.18637, 45.50000, 87.47806,     -0.39047,     -1.43421,1.00461,4
288.22281, 45.60000, 87.31025,     -0.39047,     -1.51328,1.00399,4
289.28007, 45.70000, 87.15115,     -0.39279,     -1.57828,1.00336,4
290.31658, 45.80000, 86.98114,     -0.39529,     -1.62211,1.00274,4
291.33928, 45.90000, 86.84164,     -0.39877,     -1.66542,1.00212,4
292.40032, 46.00000, 86.66738,     -0.40145,     -1.71810,1.00148,4
293.43733, 46.10000, 86.49355,     -0.40714,     -1.83289,1.00085,4
294.47511, 46.20000, 86.30652,     -0.41107,     -1.74215,1.00021,4
295.51618, 46.30000, 86.10066,     -0.41420,     -2.33447,0.99957,5
296.54675, 46.40000, 85.86065,     -0.41750,     -2.37586,0.99894,5
297.56419, 46.50000, 85.61006,     -0.41874,     -2.35907,0.99831,5
298.54475, 46.60000, 85.37762,     -0.41423,     -2.38298,0.99770,5
299.47266, 46.70000, 85.14485,     -0.40696,     -2.46706,0.99712,5
300.33267, 46.80000, 84.93569,     -0.39120,     -2.52417,0.99658,5
301.12135, 46.90000, 84.67564,     -0.37259,     -2.56847,0.99608,5
301.84087, 47.00000, 84.41142,     -0.35105,     -2.61078,0.99562,5
302.45031, 47.10000, 84.12752,     -0.32969,     -2.64662,0.99524,5
303.00930, 47.20000, 83.83252,     -0.30728,     -2.66060,0.99488,5
303.46259, 47.30000, 83.59292,     -0.28186,     -2.67413,0.99459,5
303.84956, 47.40000, 83.29188,     -0.25851,     -2.67569,0.99435,5
304.17233, 47.50000, 83.02046,     -0.23586,     -2.67280,0.99414,5
304.40886, 47.60000, 82.73847,     -0.21209,     -2.66705,0.99399,5
304.58879, 47.70000, 82.46095,     -0.19311,     -2.65408,0.99387,5
304.72154, 47.80000, 82.16423,     -0.17465,     -2.63673,0.99379,5
304.79862, 47.90000, 81.85989,     -0.15898,     -2.61476,0.99374,5
304.83676, 48.00000, 81.59809,     -0.14317,     -2.58796,0.99372,5
304.83211, 48.10000, 81.38220,     -0.13108,     -2.55714,0.99372,5
304.79568, 48.20000, 81.05758,     -0.11710,     -2.52255,0.99374,5
304.74057, 48.30000, 80.83139,     -0.10795,     -2.48505,0.99378,5
304.68125, 48.40000, 80.54197,-9.988849e-02,     -2.44487,0.99382,5
304.58171, 48.50000, 80.32851,-9.206298e-02,     -2.40236,0.99388,5
304.48278, 48.60000, 80.11179,-8.530669e-02,     -2.35814,0.99394,5
304.38138, 48.70000, 79.87898,-8.121296e-02,     -2.31278,0.99401,5
304.29247, 48.80000, 79.63596,-7.971850e-02,     -2.26676,0.99406,5
304.16621, 48.90000, 79.38766,-7.720271e-02,     -2.22045,0.99415,5
304.06576, 49.00000, 79.19432,-7.618802e-02,     -2.17425,0.99421,5
303.96107, 49.10000, 78.95175,-7.607785e-02,     -2.12848,0.99428,5
303.87159, 49.20000, 78.81679,-7.495895e-02,     -2.08344,0.99433,5
303.81575, 49.30000, 78.56458,-7.482019e-02,     -2.03934,0.99437,5
303.73179, 49.40000, 78.36390,-7.449792e-02,     -1.99632,0.99442,5
303.66161, 49.50000, 78.15558,-7.548784e-02,     -1.95456,0.99447,5
303.59477, 49.60000, 77.98560,-7.810881e-02,     -1.91421,0.99451,5
303.56367, 49.70000, 77.80986,-7.857908e-02,     -1.87541,0.99453,5
303.53061, 49.80000, 77.62287,-7.716400e-02,     -1.83814,0.99455,5
303.48230, 49.90000, 77.43197,-7.990563e-02,     -1.80247,0.99458,5
303.44761, 50.00000, 77.25680,-8.074984e-02,     -1.76850,0.99460,5
303.42045, 50.10000, 77.09853,-8.257255e-02,     -1.73615,0.99462,5
303.40441, 50.20000, 76.91961,-8.347587e-02,     -1.70537,0.99463,5
303.39709, 50.30000, 76.75024,-8.223193e-02,     -1.67628,0.99464,5
303.39266, 50.40000, 76.57685,-8.239082e-02,     -1.64888,0.99464,5
303.38540, 50.50000, 76.40984,-8.325353e-02,     -1.62305,0.99464,5
303.38929, 50.60000, 76.28799,-8.138213e-02,     -1.59862,0.99464,5
303.39052, 50.70000, 76.15540,-8.323992e-02,     -1.57541,0.99464,5
303.38671, 50.80000, 75.99456,-8.330839e-02,     -1.55328,0.99464,5
303.41170, 50.90000, 75.81709,-8.320270e-02,     -1.53219,0.99463,5
303.40484, 51.00000, 75.65552,-8.295191e-02,     -1.51198,0.99463,5
303.40807, 51.10000, 75.51406,-8.198188e-02,     -1.49241,0.99463,5
303.41756, 51.20000, 75.37968,-8.275073e-02,     -1.47325,0.99462,5
303.41911, 51.30000, 75.22394,-7.933834e-02,     -1.45430,0.99462,5
303.42860, 51.40000, 75.07086,-7.927806e-02,     -1.43552,0.99462,5
303.42569, 51.50000, 74.96721,-7.883491e-02,     -1.41690,0.99462,5
303.43568, 51.60000, 74.80981,-7.746567e-02,     -1.39835,0.99461,5
303.43737, 51.70000, 74.62421,-7.773072e-02,     -1.37986,0.99461,5
303.43680, 51.80000, 74.50781,-7.810634e-02,     -1.36148,0.99461,5
303.43622, 51.90000, 74.36336,-7.583739e-02,     -1.34329,0.99461,5
303.43597, 52.00000, 74.24957,-7.670925e-02,     -1.32536,0.99461,5
303.42199, 52.10000, 74.12258,-7.446598e-02,     -1.30770,0.99462,5
303.41993, 52.20000, 74.00619,-7.651463e-02,     -1.29027,0.99462,5
303.41593, 52.30000, 73.87339,-7.482031e-02,     -1.27309,0.99462,5
303.41106, 52.40000, 73.72750,-7.493288e-02,     -1.25625,0.99463,5
303.41579, 52.50000, 73.61084,-7.468108e-02,     -1.23980,0.99462,5
303.40003, 52.60000, 73.49072,-7.449007e-02,     -1.22366,0.99463,5
303.40807, 52.70000, 73.35551,-7.453240e-02,     -1.20777,0.99463,5
303.37719, 52.80000, 73.25607,-7.333178e-02,     -1.19215,0.99465,5
303.36966, 52.90000, 73.13537,-7.446012e-02,     -1.17690,0.99465,5
303.36899, 53.00000, 73.00765,-7.352295e-02,     -1.16209,0.99465,5
303.36240, 53.10000, 72.89310,-7.582873e-02,     -1.14783,0.99466,5
303.35642, 53.20000, 72.76113,-7.548141e-02,     -1.13413,0.99466,5
303.37085, 53.30000, 72.67113,-7.401022e-02,     -1.12103,0.99465,5
303.35403, 53.40000, 72.56334,-7.458782e-02,     -1.10863,0.99466,5
303.35861, 53.50000, 72.44883,-7.409590e-02,     -1.09689,0.99466,5
303.34224, 53.60000, 72.36396,-7.469572e-02,     -1.08577,0.99467,5
303.34731, 53.70000, 72.24926,-7.537118e-02,     -1.07533,0.99467,5
303.33247, 53.80000, 72.14548,-7.566002e-02,     -1.06548,0.99468,5
303.33818, 53.90000, 72.04809,-7.472548e-02,     -1.05611,0.99467,5
303.32627, 54.00000, 71.92367,-7.357409e-02,     -1.04714,0.99468,5
303.31503, 54.10000, 71.80309,-7.372553e-02,     -1.03846,0.99469,5
303.32152, 54.20000, 71.71145,-7.471987e-02,     -1.02998,0.99468,5
303.31535, 54.30000, 71.62624,-7.312952e-02,     -1.02160,0.99469,5
303.33555, 54.40000, 71.53403,-7.354689e-02,     -1.01326,0.99468,5
303.32474, 54.50000, 71.39932,-7.275554e-02,     -1.00520,0.99468,5
303.32349, 54.60000, 71.31212,-7.209358e-02,     -0.99722,0.99468,5
303.29919, 54.70000, 71.21983,-7.197072e-02,     -0.98897,0.99470,5
303.30229, 54.80000, 71.11946,-7.267354e-02,     -0.98136,0.99470,5
303.30844, 54.90000, 71.01463,-7.454094e-02,     -0.97425,0.99469,5
303.28910, 55.00000, 70.92499,-7.540420e-02,     -0.96638,0.99470,5
303.29159, 55.10000, 70.81632,-7.302031e-02,     -0.95760,0.99470,5
303.27869, 55.20000, 70.74159,-7.259237e-02,     -0.94807,0.99471,5
303.27768, 55.30000, 70.64404,-7.259576e-02,     -0.94354,0.99471,5
303.27564, 55.40000, 70.53656,-7.440817e-02,     -0.93271,0.99471,5
303.27631, 55.50000, 70.45918,-7.180775e-02,     -0.92494,0.99471,5
303.29333, 55.60000, 70.34157,-7.279470e-02,     -0.91657,0.99470,5
303.27368, 55.70000, 70.24116,-7.254670e-02,     -0.90847,0.99471,5
303.27241, 55.80000, 70.18241,-7.108795e-02,     -0.90173,0.99472,5
303.26059, 55.90000, 70.07616,-7.119110e-02,     -0.88647,0.99472,5
303.25904, 56.00000, 69.99871,-7.005506e-02,     -0.85362,0.99472,5
303.24793, 56.10000, 69.90943,-7.101040e-02,     -0.85155,0.99473,5
303.25996, 56.20000, 69.79561,-7.313280e-02,     -0.79372,0.99472,5
303.24671, 56.30000, 69.73169,-7.091014e-02,     -0.68827,0.99473,6
303.24372, 56.40000, 69.65759,-7.214394e-02,     -0.85673,0.99473,6
303.27918, 56.50000, 69.57352,-7.175236e-02,     -0.86076,0.99471,6
303.29032, 56.60000, 69.46922,-7.565205e-02,     -0.85432,0.99470,6
303.34286, 56.70000, 69.39738,-7.948356e-02,     -0.83862,0.99467,6
303.43325, 56.80000, 69.32168,-8.792272e-02,     -0.83028,0.99461,6
303.55407, 56.90000, 69.20868,-9.573164e-02,     -0.82442,0.99454,6
303.72067, 57.00000, 69.14275,     -0.10379,     -0.82380,0.99443,6
303.94488, 57.10000, 69.06341,     -0.11226,     -0.82847,0.99429,6
304.18115, 57.20000, 68.97685,     -0.12530,     -0.83667,0.99414,6
304.47836, 57.30000, 68.91100,     -0.13522,     -0.84488,0.99395,6
304.80212, 57.40000, 68.80715,     -0.14342,     -0.84954,0.99374,6
305.17129, 57.50000, 68.74158,     -0.15819,     -0.85125,0.99350,6
305.55972, 57.60000, 68.60605,     -0.16574,     -0.85612,0.99325,6
305.99295, 57.70000, 68.53562,     -0.17340,     -0.87242,0.99297,6
306.44866, 57.80000, 68.49660,     -0.18263,     -0.90321,0.99268,6
306.92264, 57.90000, 68.37021,     -0.18991,     -0.94098,0.99237,6
307.43551, 58.00000, 68.29885,     -0.19645,     -0.97362,0.99204,6
307.95619, 58.10000, 68.15914,     -0.20322,     -0.99441,0.99170,6
308.48453, 58.20000, 68.07616,     -0.20865,     -1.00808,0.99136,6
309.02817, 58.30000, 67.98080,     -0.21112,     -1.02450,0.99101,6
309.58534, 58.40000, 67.89030,     -0.21627,     -1.04583,0.99064,6
310.16526, 58.50000, 67.75602,     -0.22042,     -1.06822,0.99026,6
310.72320, 58.60000, 67.65005,     -0.22341,     -1.09023,0.98990,6
311.29063, 58.70000, 67.54168,     -0.22546,     -1.11771,0.98953,6
311.85961, 58.80000, 67.46445,     -0.23187,     -1.15495,0.98915,6
312.44415, 58.90000, 67.35052,     -0.23030,     -1.19834,0.98877,6
313.00560, 59.00000, 67.18547,     -0.23156,     -1.23990,0.98839,6
313.56518, 59.10000, 67.06712,     -0.23320,     -1.27557,0.98802,6
314.12435, 59.20000, 66.96573,     -0.23431,     -1.30997,0.98765,6
314.68448, 59.30000, 66.82818,     -0.23652,     -1.34516,0.98728,6
315.24194, 59.40000, 66.66439,     -0.23822,     -1.38043,0.98691,6
315.79844, 59.50000, 66.54974,     -0.23954,     -1.41424,0.98654,6
316.33948, 59.60000, 66.40088,     -0.24054,     -1.44955,0.98618,6
316.88194, 59.70000, 66.24551,     -0.24360,     -1.48975,0.98581,6
317.41843, 59.80000, 66.12104,     -0.24482,     -1.53416,0.98545,6
317.96126, 59.90000, 65.94042,     -0.24450,     -1.57751,0.98509,6
318.48699, 60.00000, 65.78383,     -0.24607,     -1.61238,0.98473,6
319.02700, 60.10000, 65.61684,     -0.24773,     -1.63725,0.98437,6
319.53840, 60.20000, 65.44059,     -0.25125,     -1.65867,0.98402,6
320.05075, 60.30000, 65.28159,     -0.25165,     -1.68881,0.98367,6
320.57018, 60.40000, 65.14872,     -0.25271,     -1.73784,0.98332,6
321.09552, 60.50000, 64.95645,     -0.25717,     -1.80228,0.98296,6
321.61291, 60.60000, 64.75164,     -0.25910,     -1.87087,0.98261,6
322.11079, 60.70000, 64.57458,     -0.26023,     -1.93030,0.98227,6
322.61725, 60.80000, 64.37689,     -0.26556,     -1.97815,0.98192,6
323.14069, 60.90000, 64.16897,     -0.26597,     -2.01732,0.98156,6
323.64484, 61.00000, 63.97521,     -0.27114,     -2.05311,0.98122,6
324.17400, 61.10000, 63.75515,     -0.27470,     -2.09068,0.98085,6
324.66579, 61.20000, 63.55415,     -0.27869,     -2.13098,0.98051,6
325.18003, 61.30000, 63.34026,     -0.28157,     -2.17473,0.98016,6
325.67887, 61.40000, 63.11139,     -0.28431,     -2.22210,0.97981,6
326.19938, 61.50000, 62.87145,     -0.28889,     -2.27333,0.97945,6
326.71776, 61.60000, 62.69397,     -0.29399,     -2.32838,0.97909,6
327.21750, 61.70000, 62.43973,     -0.29688,     -2.38529,0.97875,6
327.72428, 61.80000, 62.15488,     -0.30017,     -2.44380,0.97839,6
328.23654, 61.90000, 61.96488,     -0.30454,     -2.50529,0.97804,6
328.75405, 62.00000, 61.69399,     -0.31103,     -2.57304,0.97768,6
329.25663, 62.10000, 61.43167,     -0.31261,     -2.64407,0.97732,6
329.77960, 62.20000, 61.15468,     -0.31769,     -2.71897,0.97696,6
330.29021, 62.30000, 60.89265,     -0.32255,     -2.79518,0.97660,6
330.80892, 62.40000, 60.60638,     -0.32775,     -2.87373,0.97623,6
331.30821, 62.50000, 60.30893,     -0.33446,     -2.95349,0.97588,6
331.83125, 62.60000, 60.01142,     -0.33754,     -3.03142,0.97551,6
332.34895, 62.70000, 59.72485,     -0.34168,     -3.10544,0.97515,6
332.86049, 62.80000, 59.39625,     -0.34558,     -3.17908,0.97479,6
333.39003, 62.90000, 59.05609,     -0.35099,     -3.25963,0.97441,6
333.89925, 63.00000, 58.73254,     -0.35805,     -3.35038,0.97405,6
334.40285, 63.10000, 58.42925,     -0.36311,     -3.44485,0.97369,6
334.92437, 63.20000, 58.05067,     -0.36651,     -3.52929,0.97332,6
335.44601, 63.30000, 57.69024,     -0.37317,     -3.59514,0.97295,6
335.95038, 63.40000, 57.31021,     -0.38119,     -3.64752,0.97259,6
336.49249, 63.50000, 56.96912,     -0.38592,     -3.70089,0.97220,6
336.97776, 63.60000, 56.61401,     -0.39451,     -3.76955,0.97185,6
337.49600, 63.70000, 56.20115,     -0.39688,     -3.85606,0.97148,6
338.02431, 63.80000, 55.83191,     -0.40408,     -3.95309,0.97110,6
338.53129, 63.90000, 55.42288,     -0.41179,     -4.05131,0.97074,6
339.03985, 64.00000, 55.01540,     -0.41763,     -4.14647,0.97037,6
339.54512, 64.10000, 54.56482,     -0.42458,     -4.24196,0.97001,6
340.05701, 64.20000, 54.20050,     -0.42892,     -4.34173,0.96964,6
340.57257, 64.30000, 53.72068,     -0.43833,     -4.44676,0.96926,6
341.08484, 64.40000, 53.26685,     -0.44464,     -4.54835,0.96889,6
341.60470, 64.50000, 52.82594,     -0.45022,     -4.63949,0.96851,6
342.09419, 64.60000, 52.32893,     -0.45584,     -4.71865,0.96816,6
342.60951, 64.70000, 51.84037,     -0.46243,     -4.79137,0.96778,6
343.12662, 64.80000, 51.40782,     -0.46953,     -4.86301,0.96741,6
343.63241, 64.90000, 50.87712,     -0.47631,     -4.93460,0.96704,6
344.13186, 65.00000, 50.39906,     -0.48116,     -5.00107,0.96667,6
344.64843, 65.10000, 49.87518,     -0.48634,     -5.06290,0.96629,6
345.16422, 65.20000, 49.38635,     -0.49166,     -5.12434,0.96592,6
345.68875, 65.30000, 48.85068,     -0.49708,     -5.19565,0.96553,6
346.18930, 65.40000, 48.38214,     -0.50160,     -5.27854,0.96516,6
346.68226, 65.50000, 47.82426,     -0.50706,     -5.36488,0.96480,6
347.21831, 65.60000, 47.26733,     -0.50882,     -5.44023,0.96440,6
347.73467, 65.70000, 46.72101,     -0.51375,     -5.49758,0.96402,6
348.23604, 65.80000, 46.18399,     -0.51513,     -5.53609,0.96365,6
348.74096, 65.90000, 45.63406,     -0.51794,     -5.55857,0.96328,6
349.25801, 66.00000, 45.03742,     -0.51976,     -5.56753,0.96290,6
349.76758, 66.10000, 44.49453,     -0.52152,     -5.56686,0.96252,6
350.27672, 66.20000, 43.92842,     -0.52020,     -5.56068,0.96214,6
350.79702, 66.30000, 43.39914,     -0.52151,     -5.55338,0.96175,6
351.31548, 66.40000, 42.82093,     -0.51952,     -5.54367,0.96137,6
351.82490, 66.50000, 42.26482,     -0.51789,     -5.53199,0.96099,6
352.33138, 66.60000, 41.69259,     -0.51599,     -5.52010,0.96061,6
352.85537, 66.70000, 41.20113,     -0.51124,     -5.50940,0.96022,6
353.36317, 66.80000, 40.61045,     -0.50710,     -5.49134,0.95983,6
353.88473, 66.90000, 40.07426,     -0.49988,     -5.45472,0.95944,6
354.40294, 67.00000, 39.50209,     -0.49427,     -5.39268,0.95905,6
354.91743, 67.10000, 38.95849,     -0.48848,     -5.31245,0.95867,6
355.44288, 67.20000, 38.44560,     -0.48178,     -5.22940,0.95827,6
355.94733, 67.30000, 37.95572,     -0.47286,     -5.15162,0.95789,6
356.46552, 67.40000, 37.40462,     -0.46600,     -5.07355,0.95750,6
356.99154, 67.50000, 36.91498,     -0.45682,     -4.98551,0.95710,6
357.51733, 67.60000, 36.38357,     -0.44463,     -4.88143,0.95671,6
358.03469, 67.70000, 35.94060,     -0.43312,     -4.76369,0.95631,6
358.54766, 67.80000, 35.46083,     -0.42478,     -4.63512,0.95592,6
359.06975, 67.90000, 35.00648,     -0.41208,     -4.49622,0.95553,6
359.59819, 68.00000, 34.53436,     -0.39801,     -4.34990,0.95513,6
360.11363, 68.10000, 34.13994,     -0.38621,     -4.20268,0.95473,6
360.65538, 68.20000, 33.71167,     -0.37330,     -4.05953,0.95432,6
361.14857, 68.30000, 33.32524,     -0.35683,     -3.91774,0.95394,6
361.69482, 68.40000, 32.91224,     -0.34325,     -3.77016,0.95353,6
362.20544, 68.50000, 32.56018,     -0.33068,     -3.61172,0.95314,6
362.70720, 68.60000, 32.19641,     -0.31668,     -3.44980,0.95275,6
363.23803, 68.70000, 31.85781,     -0.30314,     -3.29127,0.95234,6
363.75632, 68.80000, 31.55128,     -0.28985,     -3.14130,0.95195,6
364.27538, 68.90000, 31.23455,     -0.27740,     -2.99569,0.95155,6
364.79869, 69.00000, 30.92334,     -0.26356,     -2.84679,0.95115,6
365.31993, 69.10000, 30.68136,     -0.24910,     -2.69040,0.95074,6
365.84450, 69.20000, 30.39308,     -0.23644,     -2.53157,0.95034,6
366.36781, 69.30000, 30.15854,     -0.22396,     -2.37864,0.94994,6
366.88065, 69.40000, 29.95030,     -0.21043,     -2.23305,0.94954,6
367.40519, 69.50000, 29.74016,     -0.20221,     -2.09203,0.94913,6
367.91828, 69.60000, 29.48969,     -0.19215,     -1.95169,0.94874,6
368.44353, 69.70000, 29.33413,     -0.17963,     -1.81461,0.94833,6
368.96833, 69.80000, 29.18469,     -0.17084,     -1.68818,0.94792,6
369.47537, 69.90000, 28.96944,     -0.16020,     -1.57548,0.94753,6
370.00048, 70.00000, 28.86711,     -0.15190,     -1.47880,0.94712,6
370.51641, 70.10000, 28.72090,     -0.14176,     -1.39359,0.94672,6
371.04115, 70.20000, 28.56527,     -0.13514,     -1.31243,0.94631,6
371.55091, 70.30000, 28.43838,     -0.12679,     -1.22457,0.94591,6
372.07728, 70.40000, 28.31410,     -0.11849,     -1.12526,0.94550,6
372.59475, 70.50000, 28.21773,     -0.11262,     -1.02207,0.94509,6
373.13156, 70.60000, 28.13043,     -0.10491,     -0.92892,0.94467,6
373.62852, 70.70000, 28.02576,-9.935695e-02,     -0.85755,0.94428,6
374.14250, 70.80000, 27.97492,-9.518973e-02,     -0.80286,0.94388,6
374.67139, 70.90000, 27.88104,-8.948077e-02,     -0.75810,0.94346,6
375.17549, 71.00000, 27.81679,-8.642751e-02,     -0.72124,0.94307,6
375.69397, 71.10000, 27.73585,-8.038027e-02,     -0.61803,0.94266,6
376.21097, 71.20000, 27.62548,-7.797310e-02,-8.843571e-02,0.94225,6
376.72063, 71.30000, 27.57354,-7.505704e-02,     -0.50754,0.94185,7
377.22573, 71.40000, 27.51802,-7.122611e-02,     -0.48306,0.94145,7
377.72103, 71.50000, 27.47708,-6.778465e-02,     -0.52413,0.94106,7
378.20344, 71.60000, 27.41844,-6.397859e-02,     -0.54430,0.94068,7
378.63078, 71.70000, 27.35232,-5.870596e-02,     -0.55473,0.94034,7
379.01710, 71.80000, 27.28690,-5.180145e-02,     -0.54313,0.94004,7
379.38500, 71.90000, 27.21796,-4.689335e-02,     -0.52765,0.93974,7
379.68811, 72.00000, 27.18428,-3.978948e-02,     -0.50707,0.93950,7
379.94679, 72.10000, 27.11315,-3.429014e-02,     -0.49007,0.93930,7
380.17049, 72.20000, 27.05536,-2.904275e-02,     -0.47318,0.93912,7
380.34641, 72.30000, 27.01518,-2.414900e-02,     -0.46207,0.93898,7
380.49286, 72.40000, 26.98077,-2.112713e-02,     -0.45136,0.93886,7
380.59535, 72.50000, 26.91542,-1.882331e-02,     -0.44117,0.93878,7
380.65947, 72.60000, 26.87974,-2.030941e-02,     -0.42986,0.93873,7
380.69019, 72.70000, 26.84678,-1.830309e-02,     -0.41902,0.93871,7
380.70775, 72.80000, 26.82177,-1.438617e-02,     -0.40744,0.93869,7
380.69163, 72.90000, 26.77980,-1.341759e-02,     -0.39734,0.93871,7
380.66227, 73.00000, 26.74859,-1.174981e-02,     -0.38807,0.93873,7
380.60503, 73.10000, 26.73128,-9.644392e-03,     -0.37805,0.93877,7
380.54918, 73.20000, 26.68082,-8.084611e-03,     -0.36901,0.93882,7
380.47460, 73.30000, 26.64846,-7.916176e-03,     -0.36041,0.93888,7
380.40806, 73.40000, 26.61545,-8.526737e-03,     -0.35179,0.93893,7
380.33020, 73.50000, 26.58262,-6.704018e-03,     -0.34342,0.93899,7
380.22870, 73.60000, 26.51680,-7.948946e-03,     -0.33536,0.93907,7
380.16176, 73.70000, 26.48350,-8.138946e-03,     -0.32756,0.93913,7
380.08558, 73.80000, 26.45070,-8.353249e-03,     -0.31993,0.93919,7
379.99760, 73.90000, 26.43002,-7.526355e-03,     -0.31245,0.93926,7
379.91996, 74.00000, 26.39927,-6.736269e-03,     -0.30509,0.93932,7
379.85785, 74.10000, 26.37362,-7.106063e-03,     -0.29784,0.93937,7
379.80381, 74.20000, 26.30620,-7.732203e-03,     -0.29074,0.93941,7
379.73729, 74.30000, 26.34139,-7.142607e-03,     -0.28386,0.93946,7
379.68748, 74.40000, 26.30775,-6.278827e-03,     -0.27717,0.93950,7
379.64941, 74.50000, 26.27342,-5.901585e-03,     -0.27063,0.93953,7
379.60660, 74.60000, 26.23875,-4.857250e-03,     -0.26425,0.93957,7
379.57549, 74.70000, 26.17315,-4.222497e-03,     -0.25809,0.93959,7
379.55245, 74.80000, 26.20509,-2.444140e-03,     -0.25213,0.93961,7
379.53447, 74.90000, 26.17356,-2.671344e-03,     -0.24639,0.93962,7
379.52671, 75.00000, 26.13965,-1.144034e-03,     -0.24088,0.93963,7
379.50690, 75.10000, 26.10629,-6.163391e-04,     -0.23558,0.93965,7
379.48596, 75.20000, 26.10661, 1.262124e-03,     -0.23047,0.93966,7
379.47993, 75.30000, 26.04855,-1.286760e-03,     -0.22556,0.93967,7
379.48804, 75.40000, 26.04842, 4.434506e-04,     -0.22085,0.93966,7
379.47979, 75.50000, 26.01737, 2.409089e-03,     -0.21636,0.93967,7
379.47707, 75.60000, 26.01515, 2.516432e-03,     -0.21205,0.93967,7
379.46586, 75.70000, 25.99136, 2.836354e-03,     -0.20789,0.93968,7
379.47412, 75.80000, 25.98253, 5.525353e-03,     -0.20392,0.93967,7
379.47940, 75.90000, 25.95004, 8.527881e-03,     -0.20010,0.93967,7
379.47908, 76.00000, 25.94957, 7.150640e-03,     -0.19640,0.93967,7
379.47990, 76.10000, 25.91652, 9.399038e-03,     -0.19279,0.93967,7
379.47905, 76.20000, 25.88439, 8.586660e-03,     -0.18930,0.93967,7
379.48698, 76.30000, 25.87518, 1.098570e-02,     -0.18592,0.93966,7
379.49264, 76.40000, 25.85055, 1.202745e-02,     -0.18266,0.93966,7
379.49416, 76.50000, 25.81879, 1.363737e-02,     -0.17954,0.93966,7
379.49215, 76.60000, 25.84290, 1.589966e-02,     -0.17652,0.93966,7
379.48520, 76.70000, 25.80887, 1.609671e-02,     -0.17362,0.93966,7
379.48704, 76.80000, 25.77706, 1.694981e-02,     -0.17088,0.93966,7
379.48383, 76.90000, 25.74319, 1.688139e-02,     -0.16827,0.93967,7
379.47967, 77.00000, 25.74377, 1.912659e-02,     -0.16575,0.93967,7
379.48700, 77.10000, 25.74330, 1.933290e-02,     -0.16336,0.93966,7
379.48268, 77.20000, 25.71918, 1.974978e-02,     -0.16115,0.93967,7
379.48042, 77.30000, 25.71903, 2.037505e-02,     -0.15912,0.93967,7
379.47600, 77.40000, 25.71876, 2.094677e-02,     -0.15720,0.93967,7
379.47168, 77.50000, 25.65271, 2.364853e-02,     -0.15534,0.93967,7
379.47289, 77.60000, 25.65386, 2.423224e-02,     -0.15358,0.93967,7
379.47591, 77.70000, 25.66810, 2.586261e-02,     -0.15192,0.93967,7
379.46090, 77.80000, 25.62090, 2.565261e-02,     -0.15034,0.93968,7
379.45500, 77.90000, 25.62746, 2.710156e-02,     -0.14881,0.93969,7
379.45184, 78.00000, 25.61134, 2.846935e-02,     -0.14736,0.93969,7
379.44914, 78.10000, 25.57907, 2.954351e-02,     -0.14598,0.93969,7
379.43968, 78.20000, 25.57812, 3.138010e-02,     -0.14468,0.93970,7
379.44079, 78.30000, 25.55374, 3.425382e-02,     -0.14348,0.93970,7
379.42800, 78.40000, 25.52125, 3.623532e-02,     -0.14238,0.93971,7
379.42199, 78.50000, 25.52094, 3.903518e-02,     -0.14134,0.93971,7
379.41200, 78.60000, 25.50459, 4.116652e-02,     -0.14035,0.93972,7
379.40601, 78.70000, 25.51275, 4.071898e-02,     -0.13943,0.93973,7
379.40668, 78.80000, 25.51297, 4.171082e-02,     -0.13862,0.93973,7
379.39815, 78.90000, 25.47899, 4.295119e-02,     -0.13792,0.93973,7
379.40493, 79.00000, 25.47891, 4.351201e-02,     -0.13726,0.93973,7
379.38579, 79.10000, 25.44679, 4.381090e-02,     -0.13654,0.93974,7
379.38709, 79.20000, 25.44665, 4.478013e-02,     -0.13571,0.93974,7
379.38879, 79.30000, 25.43776, 4.536090e-02,     -0.13483,0.93974,7
379.39286, 79.40000, 25.38842, 4.606841e-02,     -0.13394,0.93974,7
379.37893, 79.50000, 25.38072, 4.471936e-02,     -0.13301,0.93975,7
379.39092, 79.60000, 25.38065, 4.512190e-02,     -0.13200,0.93974,7
379.37602, 79.70000, 25.37992, 4.648265e-02,     -0.13094,0.93975,7
379.37201, 79.80000, 25.34724, 4.696509e-02,     -0.12981,0.93975,7
379.37093, 79.90000, 25.32294, 4.700452e-02,     -0.12861,0.93975,7
379.35807, 80.00000, 25.32265, 4.685943e-02,     -0.12733,0.93976,7
379.34992, 80.10000, 25.31478, 4.863341e-02,     -0.12601,0.93977,7
379.35472, 80.20000, 25.28080, 4.875444e-02,     -0.12467,0.93977,7
379.35051, 80.30000, 25.28147, 4.949866e-02,     -0.12333,0.93977,7
379.33960, 80.40000, 25.28237, 5.046410e-02,     -0.12196,0.93978,7
379.34470, 80.50000, 25.28069, 4.969263e-02,     -0.12053,0.93978,7
379.34106, 80.60000, 25.27330, 5.028538e-02,     -0.11903,0.93978,7
379.33419, 80.70000, 25.24790, 5.206081e-02,     -0.11748,0.93978,7
379.33462, 80.80000, 25.23964, 5.372532e-02,     -0.11588,0.93978,7
379.32409, 80.90000, 25.20763, 5.271580e-02,     -0.11424,0.93979,7
379.33203, 81.00000, 25.17334, 5.252676e-02,     -0.11250,0.93979,7
379.32691, 81.10000, 25.20782, 5.349461e-02,     -0.11068,0.93979,7
379.32910, 81.20000, 25.20654, 5.451597e-02,     -0.10880,0.93979,7
379.31195, 81.30000, 25.17396, 5.470151e-02,     -0.10693,0.93980,7
379.31683, 81.40000, 25.12445, 5.330722e-02,     -0.10511,0.93980,7
379.31400, 81.50000, 25.12459, 5.478079e-02,     -0.10337,0.93980,7
379.31095, 81.60000, 25.11638, 5.513812e-02,     -0.10175,0.93980,7
379.31284, 81.70000, 25.15023, 5.349819e-02,     -0.10026,0.93980,7
379.30784, 81.80000, 25.14893, 5.450555e-02,-9.892840e-02,0.93980,7
379.30708, 81.90000, 25.11672, 5.473560e-02,-9.776908e-02,0.93981,7
379.29116, 82.00000, 25.11652, 5.456107e-02,-9.680685e-02,0.93982,7
379.29657, 82.10000, 25.11599, 5.331312e-02,-9.603191e-02,0.93981,7
379.28640, 82.20000, 25.09186, 5.467358e-02,-9.540948e-02,0.93982,7
379.29167, 82.30000, 25.08257, 5.429119e-02,-9.493977e-02,0.93982,7
379.30817, 82.40000, 25.05078, 5.502520e-02,-9.460699e-02,0.93980,7
379.27734, 82.50000, 25.05046, 5.426829e-02,-9.431460e-02,0.93983,7
379.27885, 82.60000, 25.08458, 5.532546e-02,-9.397187e-02,0.93983,7
379.29001, 82.70000, 25.05021, 5.534739e-02,-9.357295e-02,0.93982,7
379.28587, 82.80000, 25.01684, 5.637480e-02,-9.313882e-02,0.93982,7
379.28632, 82.90000, 25.01744, 5.434838e-02,-9.262710e-02,0.93982,7
379.28473, 83.00000, 25.01685, 5.715686e-02,-9.196390e-02,0.93982,7
379.28886, 83.10000, 24.98540, 5.533355e-02,-9.113895e-02,0.93982,7
379.28896, 83.20000, 25.00859, 5.599639e-02,-9.017718e-02,0.93982,7
379.28359, 83.30000, 24.95082, 5.591993e-02,-8.908879e-02,0.93982,7
379.28309, 83.40000, 24.95159, 5.617424e-02,-8.790262e-02,0.93982,7
379.27479, 83.50000, 24.95153, 5.526575e-02,-8.667149e-02,0.93983,7
379.27809, 83.60000, 24.96850, 5.580186e-02,-8.540985e-02,0.93983,7
379.27614, 83.70000, 24.96815, 5.694890e-02,-8.409419e-02,0.93983,7
379.26205, 83.80000, 24.96759, 5.903945e-02,-8.277175e-02,0.93984,7
379.27053, 83.90000, 24.90998, 5.819011e-02,-8.154026e-02,0.93983,7
379.28247, 84.00000, 24.91051, 5.818902e-02,-8.041963e-02,0.93982,7
379.28313, 84.10000, 24.87728, 5.797844e-02,-7.937815e-02,0.93982,7
379.29345, 84.20000, 24.91026, 6.003272e-02,-7.841852e-02,0.93982,7
379.26790, 84.30000, 24.87661, 6.130573e-02,-7.756001e-02,0.93984,7
379.27313, 84.40000, 24.87845, 5.983476e-02,-7.681252e-02,0.93983,7
379.26599, 84.50000, 24.89280, 6.179651e-02,-7.617153e-02,0.93984,7
379.26612, 84.60000, 24.89368, 6.208793e-02,-7.562905e-02,0.93984,7
379.26403, 84.70000, 24.89394, 6.346295e-02,-7.516874e-02,0.93984,7
379.26094, 84.80000, 24.86045, 6.142332e-02,-7.476917e-02,0.93984,7
379.25896, 84.90000, 24.82714, 6.102968e-02,-7.444318e-02,0.93984,7
379.27557, 85.00000, 24.82813, 6.057827e-02,-7.419608e-02,0.93983,7
379.25633, 85.10000, 24.84402, 6.050667e-02,-7.397421e-02,0.93985,7
379.23991, 85.20000, 24.84405, 6.305139e-02,-7.371741e-02,0.93986,7
379.23585, 85.30000, 24.84337, 6.266377e-02,-7.343148e-02,0.93986,7
379.24778, 85.40000, 24.81120, 6.364157e-02,-7.313089e-02,0.93985,7
379.23379, 85.50000, 24.81100, 6.519991e-02,-7.280374e-02,0.93986,7
379.24080, 85.60000, 24.81047, 6.284946e-02,-7.245454e-02,0.93986,7
379.22606, 85.70000, 24.78635, 6.202225e-02,-7.205686e-02,0.93987,7
379.22819, 85.80000, 24.78622, 6.262893e-02,-7.159694e-02,0.93987,7
379.22307, 85.90000, 24.78613, 6.331500e-02,-7.113568e-02,0.93987,7
379.22001, 86.00000, 24.79410, 6.452744e-02,-7.069875e-02,0.93987,7
379.21482, 86.10000, 24.77007, 6.323428e-02,-7.024394e-02,0.93988,7
379.23348, 86.20000, 24.76990, 6.204524e-02,-6.975492e-02,0.93986,7
379.22366, 86.30000, 24.76945, 6.269437e-02,-6.927043e-02,0.93987,7
379.20251, 86.40000, 24.72799, 6.164759e-02,-6.884708e-02,0.93989,7
379.20094, 86.50000, 24.71191, 6.217752e-02,-6.852793e-02,0.93989,7
379.19821, 86.60000, 24.74574, 6.208453e-02,-6.834091e-02,0.93989,7
379.19095, 86.70000, 24.74462, 6.123191e-02,-6.830698e-02,0.93990,7
379.19661, 86.80000, 24.72066, 6.179852e-02,-6.844406e-02,0.93989,7
379.21609, 86.90000, 24.68685, 6.228943e-02,-6.876160e-02,0.93988,7
379.20270, 87.00000, 24.72064, 6.208593e-02,-6.927106e-02,0.93989,7
379.20111, 87.10000, 24.69493, 6.140746e-02,-6.998130e-02,0.93989,7
379.19689, 87.20000, 24.67963, 6.166206e-02,-7.084096e-02,0.93989,7
379.19519, 87.30000, 24.69497, 6.451791e-02,-7.182091e-02,0.93989,7
379.19705, 87.40000, 24.69546, 6.265891e-02,-7.298590e-02,0.93989,7
379.18587, 87.50000, 24.69568, 6.449049e-02,-7.434893e-02,0.93990,7
379.19403, 87.60000, 24.66200, 6.303948e-02,-7.580918e-02,0.93989,7
379.18995, 87.70000, 24.66256, 6.509400e-02,-7.725331e-02,0.93990,7
379.18210, 87.80000, 24.66196, 6.350525e-02,-7.864718e-02,0.93990,7
379.19212, 87.90000, 24.63043, 6.307933e-02,-8.001501e-02,0.93990,7
379.19196, 88.00000, 24.66177, 6.445702e-02,-8.132282e-02,0.93990,7
379.18888, 88.10000, 24.62992, 6.434740e-02,-8.249298e-02,0.93990,7
379.19086, 88.20000, 24.59566, 6.270069e-02,-8.351940e-02,0.93990,7
379.20286, 88.30000, 24.63037, 6.524249e-02,-8.443619e-02,0.93989,7
379.20107, 88.40000, 24.59574, 6.527966e-02,-8.521684e-02,0.93989,7
379.18895, 88.50000, 24.57979, 6.388545e-02,-8.581263e-02,0.93990,7
379.18628, 88.60000, 24.57995, 6.280533e-02,-8.621341e-02,0.93990,7
379.18126, 88.70000, 24.58015, 6.389794e-02,-8.640324e-02,0.93990,7
379.17776, 88.80000, 24.54646, 6.305386e-02,-8.634998e-02,0.93991,7
379.16702, 88.90000, 24.54707, 6.167334e-02,-8.624356e-02,0.93992,7
379.18452, 89.00000, 24.54711, 6.243811e-02,-8.608539e-02,0.93990,7
379.16800, 89.10000, 24.54706, 6.286522e-02,-8.563962e-02,0.93992,7
379.15681, 89.20000, 24.54638, 6.430477e-02,-8.512259e-02,0.93992,7
379.16788, 89.30000, 24.51424, 6.306130e-02,-8.457786e-02,0.93992,7
379.16075, 89.40000, 24.51438, 6.369210e-02,-8.367368e-02,0.93992,7
379.18120, 89.50000, 24.52995, 6.365100e-02,-8.222797e-02,0.93991,7
379.16601, 89.60000, 24.46398, 6.371555e-02,-8.103830e-02,0.93992,7
379.17475, 89.70000, 24.46513, 6.220363e-02,-7.928215e-02,0.93991,7
379.16274, 89.80000, 24.49750, 6.374275e-02,-7.752596e-02,0.93992,7
379.14743, 89.90000, 24.46382, 6.344194e-02,-7.502996e-02,0.93993,7
379.15887, 90.00000, 24.45658, 6.401340e-02,-7.282296e-02,0.93992,7
379.16005, 90.10000, 24.42256, 6.392482e-02,-7.007860e-02,0.93992,7
379.15012, 90.20000, 24.44033, 6.388627e-02,-6.886588e-02,0.93993,7
379.15276, 90.30000, 24.44830, 6.328203e-02,-6.484871e-02,0.93993,7
379.15657, 90.40000, 24.41438, 6.388569e-02,-5.947007e-02,0.93992,7
379.14245, 90.50000, 24.41499, 6.244614e-02,-5.434926e-02,0.93994,7
379.15317, 90.60000, 24.41506, 6.410703e-02,-4.949007e-02,0.93993,7
379.15113, 90.70000, 24.44845, 6.329381e-02,-3.678762e-02,0.93993,7
379.15699, 90.80000, 24.38952, 6.529013e-02,-3.531128e-02,0.93992,7
379.15090, 90.90000, 24.39011, 6.632124e-02,-2.545004e-02,0.93993,7
379.15093, 91.00000, 24.38935, 6.593940e-02,-2.315392e-02,0.93993,7
379.14405, 91.10000, 24.38281, 6.589944e-02, 4.627642e-02,0.93993,7
379.14872, 91.20000, 24.38997, 6.497390e-02,      0.24449,0.93993,7
379.14161, 91.30000, 24.37369, 6.627717e-02,     -0.21254,0.93994,8
379.18483, 91.40000, 24.37369, 6.695670e-02,-9.748484e-02,0.93990,8
379.32877, 91.50000, 24.35714, 5.817338e-02,-7.799690e-02,0.93979,8
379.67328, 91.60000, 24.36871, 4.487969e-02,-8.685658e-02,0.93951,8
380.31134, 91.70000, 24.32398, 3.148677e-02,-5.088579e-02,0.93901,8
381.22568, 91.80000, 24.35731, 9.738539e-03,-2.375107e-02,0.93828,8
382.48811, 91.90000, 24.33416,-9.154842e-03,     -0.16471,0.93728,8
384.14221, 92.00000, 24.32212,-3.307992e-02,     -0.18974,0.93595,8
386.14633, 92.10000, 24.27727,-4.949575e-02,     -0.13075,0.93435,8
388.51779, 92.20000, 24.28707,-6.923067e-02,-7.823386e-02,0.93244,8
391.26720, 92.30000, 24.27884,-8.974036e-02,     -0.16511,0.93022,8
394.36932, 92.40000, 24.24626,     -0.10954,     -0.13956,0.92770,8
397.77930, 92.50000, 24.25449,     -0.12459,-2.804292e-02,0.92492,8
401.48570, 92.60000, 24.27375,     -0.14167,-8.532504e-02,0.92188,8
405.46294, 92.70000, 24.22132,     -0.15511,     -0.16426,0.91860,8
409.68149, 92.80000, 24.23998,     -0.16477,     -0.17537,0.91511,8
414.11152, 92.90000, 24.20885,     -0.17588,     -0.22135,0.91141,8
418.71667, 93.00000, 24.17268,     -0.18605,     -0.32506,0.90756,8
423.45800, 93.10000, 24.13961,     -0.21079,     -0.42309,0.90356,8
428.30225, 93.20000, 24.10686,     -0.25122,     -0.57196,0.89946,8
433.24380, 93.30000, 24.04138,     -0.28341,     -0.78086,0.89526,8
438.23900, 93.40000, 23.90616,     -0.27081,     -0.93617,0.89100,8
443.27328, 93.50000, 23.82208,     -0.23300,     -1.06984,0.88669,8
448.32926, 93.60000, 23.73418,     -0.16302,     -1.24763,0.88234,8
453.36630, 93.70000, 23.58049,-6.171200e-02,     -1.55651,0.87799,8
458.38928, 93.80000, 23.40889, 2.232167e-02,     -1.93497,0.87365,8
463.36969, 93.90000, 23.18120, 9.188018e-02,     -2.06950,0.86933,8
468.30278, 94.00000, 23.00979,      0.14306,     -2.10021,0.86505,8
473.19481, 94.10000, 22.76216,      0.18283,     -2.31241,0.86079,8
477.99821, 94.20000, 22.56910,      0.20230,     -2.54118,0.85661,8
482.75713, 94.30000, 22.25063,      0.18938,     -2.54681,0.85246,8
487.45361, 94.40000, 22.03742,      0.16453,     -2.45066,0.84836,8
492.08219, 94.50000, 21.77616,      0.12874,     -2.32708,0.84432,8
496.63217, 94.60000, 21.54391, 8.943718e-02,     -2.03137,0.84036,8
501.13137, 94.70000, 21.39371, 5.148712e-02,     -1.92980,0.83643,8
505.58140, 94.80000, 21.16079, 1.382916e-02,     -2.13188,0.83255,8
509.98339, 94.90000, 20.96308,-2.204090e-02,     -2.09004,0.82872,8
514.34648, 95.00000, 20.72714,-4.594814e-02,     -1.73318,0.82492,8
518.67106, 95.10000, 20.61372,-7.294697e-02,     -1.41433,0.82116,8
522.96550, 95.20000, 20.47230,-9.360326e-02,     -1.53836,0.81743,8
527.22884, 95.30000, 20.27193,     -0.12101,     -1.69247,0.81373,8
531.46475, 95.40000, 20.11266,     -0.15569,     -1.47828,0.81007,8
535.70116, 95.50000, 19.99424,     -0.19338,     -1.31728,0.80641,8
539.87542, 95.60000, 19.86930,     -0.22092,     -1.27676,0.80281,8
544.07099, 95.70000, 19.74571,     -0.24231,     -1.36671,0.79920,8
548.23779, 95.80000, 19.59246,     -0.25623,     -1.48811,0.79563,8
552.41688, 95.90000, 19.44704,     -0.26330,     -1.40451,0.79205,8
556.58629, 96.00000, 19.31222,     -0.26717,     -1.30465,0.78850,8
560.75345, 96.10000, 19.19691,     -0.26647,     -1.12225,0.78495,8
564.94542, 96.20000, 19.08337,     -0.26712,     -1.14139,0.78140,8
569.08918, 96.30000, 18.97081,     -0.26414,     -1.27814,0.77790,8
573.26509, 96.40000, 18.81212,     -0.26366,     -1.17315,0.77438,8
577.42103, 96.50000, 18.74286,     -0.26099,     -1.02559,0.77089,8
581.58325, 96.60000, 18.62702,     -0.25834,     -1.06307,0.76742,8
585.75196, 96.70000, 18.52737,     -0.24524,     -1.10974,0.76395,8
589.92114, 96.80000, 18.38134,     -0.23591,     -1.12997,0.76049,8
594.09562, 96.90000, 18.27375,     -0.22283,     -1.02768,0.75704,8
598.25789, 97.00000, 18.20201,     -0.21025,     -0.98562,0.75362,8
602.41479, 97.10000, 18.08032,     -0.19988,     -1.08723,0.75022,8
606.58282, 97.20000, 17.96958,     -0.18799,     -1.02419,0.74683,8
610.74565, 97.30000, 17.89108,     -0.18008,     -0.98823,0.74346,8
614.90442, 97.40000, 17.77821,     -0.16745,     -0.99055,0.74010,8
619.07376, 97.50000, 17.67563,     -0.16158,     -0.93460,0.73676,8
623.22864, 97.60000, 17.60365,     -0.15213,     -0.96341,0.73344,8
627.38654, 97.70000, 17.49243,     -0.14242,     -0.99028,0.73014,8
631.54499, 97.80000, 17.40029,     -0.13172,     -0.99348,0.72686,8
635.69870, 97.90000, 17.29139,     -0.12249,     -0.91080,0.72360,8
639.84700, 98.00000, 17.19622,     -0.10743,     -0.76893,0.72037,8
643.99959, 98.10000, 17.16595,-9.771538e-02,     -0.78395,0.71715,8
648.13587, 98.20000, 17.05490,-8.511038e-02,     -0.84513,0.71396,8
652.28559, 98.30000, 16.96297,-7.653538e-02,     -0.82336,0.71078,8
656.41387, 98.40000, 16.90720,-6.522693e-02,     -0.83291,0.70763,8
660.54983, 98.50000, 16.80982,-5.669637e-02,     -0.86117,0.70450,8
664.68614, 98.60000, 16.70672,-4.106072e-02,     -0.79401,0.70139,8
668.81367, 98.70000, 16.63307,-3.169467e-02,     -0.65603,0.69831,8
672.94316, 98.80000, 16.60183,-2.016796e-02,     -0.65411,0.69525,8
677.06059, 98.90000, 16.50597,-1.573535e-02,     -0.72211,0.69221,8
681.18433, 99.00000, 16.43400,-7.982988e-03,     -0.72453,0.68919,8
685.30117, 99.10000, 16.38472, 1.011925e-03,     -0.67275,0.68620,8
689.40960, 99.20000, 16.31855, 8.636609e-03,     -0.59151,0.68323,8
693.52177, 99.30000, 16.25414, 1.264574e-02,     -0.41153,0.68029,8
697.64582, 99.40000, 16.19917, 2.306181e-02,      0.29415,0.67735,9
701.63396, 99.50000, 16.15237, 2.605155e-02,     -0.49378,0.67453,9
705.30834, 99.60000, 16.09528, 3.666201e-02,     -0.46941,0.67195,9
708.53889, 99.70000, 16.07013, 4.654380e-02,     -0.49200,0.66970,9
711.30988, 99.80000, 16.01090, 5.153744e-02,     -0.47068,0.66778,9
713.58364, 99.90000, 15.97767, 5.286948e-02,     -0.42636,0.66621,9
715.39861,100.00000, 15.88956, 5.208330e-02,     -0.39389,0.66496,9
716.71300,100.10000, 15.84968, 4.175751e-02,     -0.36884,0.66406,9
717.62868,100.20000, 15.81768, 3.449423e-02,     -0.33507,0.66343,9
718.14688,100.30000, 15.79901, 3.069411e-02,     -0.30754,0.66308,9
718.31809,100.40000, 15.78168, 2.761433e-02,     -0.28686,0.66296,9
718.19217,100.50000, 15.73695, 1.231152e-02,     -0.26177,0.66305,9
717.79571,100.60000, 15.74344, 8.661041e-03,     -0.24100,0.66332,9
717.18859,100.70000, 15.72421, 1.599075e-02,     -0.21933,0.66373,9
716.42742,100.80000, 15.67153, 3.809893e-02,     -0.19967,0.66425,9
715.53633,100.90000, 15.66458, 4.892007e-02,     -0.18120,0.66487,9
714.57046,101.00000, 15.67763, 7.186182e-02,     -0.16521,0.66553,9
713.52829,101.10000, 15.68364,      0.10527,     -0.15019,0.66625,9
712.47985,101.20000, 15.65238,      0.14278,     -0.13687,0.66697,9
711.43866,101.30000, 15.60639,      0.17758,     -0.12435,0.66769,9
710.42666,101.40000, 15.60744,      0.20376,     -0.11335,0.66839,9
709.47013,101.50000, 15.60753,      0.22330,     -0.10367,0.66905,9
708.57133,101.60000, 15.60777,      0.23569,-9.542032e-02,0.66968,9
707.74089,101.70000, 15.60316,      0.24032,-8.857644e-02,0.67026,9
706.98589,101.80000, 15.57513,      0.23365,-8.301272e-02,0.67078,9
706.32696,101.90000, 15.57801,      0.21595,-7.856813e-02,0.67124,9
705.73960,102.00000, 15.60227,      0.19594,-7.512745e-02,0.67165,9
705.24285,102.10000, 15.56705,      0.17924,-7.253699e-02,0.67200,9
704.82309,102.20000, 15.56431,      0.16127,-7.056904e-02,0.67229,9
704.50177,102.30000, 15.60812,      0.14785,-6.899692e-02,0.67252,9
704.24205,102.40000, 15.57515,      0.13640,-6.761740e-02,0.67270,9
704.04593,102.50000, 15.54167,      0.12621,-6.623236e-02,0.67284,9
703.93127,102.60000, 15.54160,      0.12122,-6.455191e-02,0.67292,9
703.85980,102.70000, 15.54172,      0.11179,-6.239153e-02,0.67297,9
703.83347,102.80000, 15.54642,      0.11110,-5.980957e-02,0.67299,9
703.84481,102.90000, 15.47521,      0.10245,-5.691279e-02,0.67298,9
703.89289,103.00000, 15.47636, 9.677034e-02,-5.373195e-02,0.67295,9
703.97437,103.10000, 15.51112, 9.345812e-02,-5.024978e-02,0.67289,9
704.05752,103.20000, 15.51043, 8.940359e-02,-4.658218e-02,0.67283,9
704.14505,103.30000, 15.49263, 8.698650e-02,-4.300499e-02,0.67277,9
704.25841,103.40000, 15.51513, 8.571374e-02,-3.968919e-02,0.67269,9
704.37039,103.50000, 15.49042, 8.680437e-02,-3.662922e-02,0.67261,9
704.47826,103.60000, 15.49208, 8.697160e-02,-3.382813e-02,0.67254,9
704.58019,103.70000, 15.48840, 8.652382e-02,-3.136763e-02,0.67246,9
704.67073,103.80000, 15.47652, 8.722324e-02,-2.926607e-02,0.67240,9
704.75925,103.90000, 15.47541, 8.811621e-02,-2.743074e-02,0.67234,9
704.84673,104.00000, 15.47525, 8.822555e-02,-2.571747e-02,0.67228,9
704.90571,104.10000, 15.47873, 8.908959e-02,-2.403719e-02,0.67224,9
704.96733,104.20000, 15.49952, 9.120395e-02,-2.230928e-02,0.67219,9
705.01109,104.30000, 15.49151, 9.114339e-02,-2.042379e-02,0.67216,9
705.05339,104.40000, 15.49896, 9.069002e-02,-1.839358e-02,0.67213,9
705.06643,104.50000, 15.42745, 9.400748e-02,-1.637830e-02,0.67212,9
705.08102,104.60000, 15.42927, 9.386216e-02,-1.447093e-02,0.67211,9
705.08474,104.70000, 15.45839, 9.783862e-02,-1.266864e-02,0.67211,9
705.07877,104.80000, 15.46792, 9.898181e-02,-1.106425e-02,0.67212,9
705.06082,104.90000, 15.46851, 9.801541e-02,-9.928427e-03,0.67213,9
705.05758,105.00000, 15.43065, 9.536391e-02,-9.556361e-03,0.67213,9
705.03177,105.10000, 15.46813, 9.666069e-02,-9.984924e-03,0.67215,9
704.98635,105.20000, 15.46723, 9.589796e-02,-1.119234e-02,0.67218,9
704.95457,105.30000, 15.46717, 9.675493e-02,-1.323008e-02,0.67220,9
704.92307,105.40000, 15.46708, 9.877095e-02,-1.607925e-02,0.67222,9
704.87661,105.50000, 15.46878, 9.691310e-02,-1.964962e-02,0.67226,9
704.85593,105.60000, 15.50018, 9.373715e-02,-2.377669e-02,0.67227,9
704.80894,105.70000, 15.46460, 9.045041e-02,-2.828227e-02,0.67230,9
704.77810,105.80000, 15.46712, 9.263435e-02,-3.300522e-02,0.67233,9
704.75377,105.90000, 15.46504, 8.986835e-02,-3.769600e-02,0.67234,9
704.71537,106.00000, 15.45357, 8.989342e-02,-4.211917e-02,0.67237,9
704.69932,106.10000, 15.42662, 9.011937e-02,-4.609307e-02,0.67238,9
704.66662,106.20000, 15.44873, 8.914639e-02,-4.947691e-02,0.67240,9
704.65145,106.30000, 15.46022, 8.596231e-02,-5.218644e-02,0.67241,9
704.63013,106.40000, 15.42369, 8.621846e-02,-5.416804e-02,0.67243,9
704.60502,106.50000, 15.42150, 8.674089e-02,-5.552990e-02,0.67245,9
704.59391,106.60000, 15.39362, 8.306612e-02,-5.644029e-02,0.67245,9
704.57863,106.70000, 15.39295, 8.199696e-02,-5.687796e-02,0.67247,9
704.55783,106.80000, 15.39197, 7.937762e-02,-5.681752e-02,0.67248,9
704.55572,106.90000, 15.40330, 8.033013e-02,-5.642658e-02,0.67248,9
704.53940,107.00000, 15.37301, 7.996812e-02,-5.589512e-02,0.67249,9
704.53422,107.10000, 15.38449, 7.941432e-02,-5.517264e-02,0.67250,9
704.52962,107.20000, 15.37533, 7.860580e-02,-5.421134e-02,0.67250,9
704.51184,107.30000, 15.37190, 7.785435e-02,-5.315998e-02,0.67251,9
704.51113,107.40000, 15.38470, 7.856293e-02,-5.212314e-02,0.67251,9
704.50870,107.50000, 15.34932, 7.856590e-02,-5.083735e-02,0.67251,9
704.51051,107.60000, 15.36934, 7.782750e-02,-4.913205e-02,0.67251,9
704.49518,107.70000, 15.36652, 7.552844e-02,-4.718336e-02,0.67252,9
704.50395,107.80000, 15.33434, 7.338351e-02,-4.581191e-02,0.67252,9
704.50072,107.90000, 15.33291, 7.642409e-02,-4.322691e-02,0.67252,9
704.50143,108.00000, 15.31884, 7.730288e-02,-4.058525e-02,0.67252,9
704.49868,108.10000, 15.31913, 7.527665e-02,-3.983672e-02,0.67252,9
704.48984,108.20000, 15.31848, 7.504596e-02,-3.809531e-02,0.67253,9
704.49611,108.30000, 15.31034, 7.801322e-02,-3.683689e-02,0.67252,9
704.49638,108.40000, 15.30875, 7.577158e-02,-3.746631e-02,0.67252,9
704.49045,108.50000, 15.32672, 7.305946e-02,-3.707687e-02,0.67253,9
704.48607,108.60000, 15.32679, 7.814866e-02,-3.207511e-02,0.67253,9
704.46954,108.70000, 15.31847, 7.578917e-02,-3.265426e-02,0.67254,9
704.46590,108.80000, 15.34185, 7.668696e-02,-3.805314e-02,0.67254,9
704.46769,108.90000, 15.33656, 7.322349e-02,-5.396993e-02,0.67254,9
704.46127,109.00000, 15.29466, 7.469971e-02,-7.834978e-02,0.67255,9
704.46682,109.10000, 15.29835, 7.644630e-02,     -0.11535,0.67254,9
704.44958,109.20000, 15.32748, 7.403483e-02,     -0.11839,0.67256,9
704.44679,109.30000, 15.29270, 7.276994e-02,     -0.36443,0.67256,9

